 0.000  -0.00890390
 0.001  0.23705943
 0.001  0.41997281
 0.002  0.61328444
 0.002  0.58614382
 0.003  0.63309055
 0.003  0.75256587
 0.004  0.94455906
 0.004  0.99928627
 0.004  1.03329086
 0.005  0.96233630
 0.005  0.99395601
 0.006  0.92188665
 0.006  0.91443649
 0.007  0.77182204
 0.007  0.68461754
 0.008  0.58974949
 0.009  0.49194735
 0.009  0.44328544
 0.009  0.23159380
 0.010  0.04854327
 0.011  -0.23194297
 0.011  -0.46097917
 0.011  -0.53050038
 0.012  -0.52817758
 0.013  -0.64602382
 0.013  -0.81343988
 0.013  -0.83327633
 0.014  -1.02177703
 0.015  -1.04502668
 0.015  -0.89749131
 0.015  -0.96011709
 0.016  -0.95520461
 0.017  -0.84111316
 0.017  -0.86036820
 0.018  -0.66330128
 0.018  -0.60355969
 0.018  -0.49590327
 0.019  -0.36785161
 0.019  -0.23850833
 0.020  -0.04717033
 0.021  0.21728234
 0.021  0.42748150
 0.021  0.58091373
 0.022  0.61134276
 0.022  0.66627826
 0.023  0.74882027
 0.024  0.91132012
 0.024  0.98215594
 0.025  0.95729983
 0.025  0.94178420
 0.025  0.90336587
 0.026  0.97820537
 0.026  0.89362123
 0.027  0.77536612
 0.028  0.77090624
 0.028  0.69604057
 0.029  0.59126995
 0.029  0.38122651
 0.029  0.27126385
 0.030  0.04524920
 0.030  -0.20963836
 0.031  -0.37147723
 0.032  -0.48756160
 0.032  -0.56019621
 0.033  -0.66064319
 0.033  -0.85901233
 0.034  -0.91748957
 0.034  -0.88538829
 0.035  -0.88335120
 0.035  -0.96412461
 0.035  -0.99151048
 0.036  -0.91823163
 0.036  -0.86376254
 0.037  -0.74030999
 0.037  -0.59552578
 0.038  -0.54150683
 0.038  -0.45363258
 0.039  -0.42057690
 0.040  -0.18951321
 0.040  0.02005204
 0.041  0.27675756
 0.041  0.37022336
 0.042  0.51345558
 0.042  0.66690395
 0.043  0.71574457
 0.043  0.82979790
 0.043  0.96578047
 0.044  0.95175502
 0.044  0.91474363
 0.045  1.03149169
 0.045  1.00499390
 0.046  0.91104327
 0.046  0.84933547
 0.047  0.81623574
 0.048  0.65135347
 0.048  0.65101784
 0.049  0.59278920
 0.049  0.41638213
 0.050  0.28033180
 0.050  -0.00592708
 0.051  -0.24878348
 0.051  -0.41046846
 0.051  -0.53542278
 0.052  -0.41632837
 0.052  -0.57567566
 0.053  -0.63056933
 0.053  -0.91389380
 0.054  -0.92672992
 0.054  -0.93646763
 0.055  -0.95297835
 0.056  -1.04977046
 0.056  -0.90591629
 0.057  -0.86093493
 0.057  -0.73305653
 0.058  -0.57920940
 0.058  -0.53688105
 0.059  -0.41704645
 0.059  -0.42832144
 0.059  -0.17429086
 0.060  0.05841825
 0.060  0.28378548
 0.061  0.43163142
 0.061  0.57743339
 0.062  0.72494765
 0.063  0.72802390
 0.063  0.89148718
 0.064  0.98446875
 0.064  0.97536265
 0.065  0.90437170
 0.065  1.07393736
 0.066  0.93696897
 0.066  0.94362058
 0.067  0.91182136
 0.067  0.72111708
 0.068  0.80846465
 0.068  0.62223864
 0.069  0.45677869
 0.069  0.46873261
 0.070  0.30749884
 0.070  0.09577178
 0.070  -0.34134517
 0.071  -0.33378073
 0.071  -0.43046687
 0.072  -0.51096046
 0.072  -0.58099117
 0.073  -0.66024513
 0.073  -0.81826367
 0.074  -0.97698723
 0.074  -0.87597453
 0.075  -0.90971176
 0.075  -0.90344416
 0.076  -0.92641908
 0.076  -0.85899110
 0.077  -0.73958461
 0.077  -0.70131055
 0.078  -0.47856576
 0.079  -0.55236505
 0.079  -0.35750230
 0.080  -0.14629141
 0.080  0.08308137
 0.081  0.26892105
 0.081  0.51896709
 0.082  0.57734991
 0.082  0.59784627
 0.083  0.58148708
 0.083  0.81024620
 0.084  1.01361294
 0.084  0.99356612
 0.085  1.02894468
 0.085  0.96947173
 0.086  1.01937460
 0.086  0.99869531
 0.086  0.97438317
 0.087  0.82848585
 0.087  0.63888568
 0.088  0.72601741
 0.088  0.59019909
 0.089  0.57398781
 0.089  0.39758328
 0.090  -0.00700548
 0.090  -0.21060115
 0.091  -0.38311944
 0.091  -0.44208545
 0.092  -0.52146746
 0.092  -0.59050910
 0.093  -0.66652742
 0.093  -0.84487510
 0.094  -0.87067410
 0.095  -0.86188046
 0.095  -0.92625173
 0.096  -0.89448853
 0.096  -0.95024245
 0.097  -0.94104743
 0.097  -0.70857897
 0.098  -0.57454851
 0.098  -0.48825467
 0.099  -0.41727919
 0.099  -0.38334970
 0.100  -0.19425948
 0.100  0.04459910
 0.101  0.34714011
 0.101  0.57719884
 0.102  0.64090688
 0.102  0.66790135
 0.102  0.85540292
 0.103  0.93848611
 0.103  0.90318602
 0.104  1.07077666
 0.104  1.01772720
 0.105  1.03705394
 0.105  1.01952033
 0.106  0.99059465
 0.106  0.91078253
 0.107  0.74544521
 0.107  0.77817398
 0.108  0.58006811
 0.108  0.63717627
 0.109  0.50001443
 0.110  0.33250973
 0.110  0.05236506
 0.111  -0.13245713
 0.111  -0.31061198
 0.112  -0.42231793
 0.112  -0.51936343
 0.113  -0.55871561
 0.113  -0.78354737
 0.114  -0.76008837
 0.114  -0.91965262
 0.115  -0.85307492
 0.115  -0.92898257
 0.116  -0.90446517
 0.116  -0.90211592
 0.117  -0.86994549
 0.117  -0.69006062
 0.117  -0.58988321
 0.118  -0.51602248
 0.118  -0.47232545
 0.119  -0.37030475
 0.119  -0.13789235
 0.120  0.06805916
 0.120  0.38974477
 0.121  0.54173597
 0.121  0.66492071
 0.122  0.57987952
 0.122  0.72185781
 0.123  0.93441482
 0.123  0.93483689
 0.124  1.06011805
 0.124  1.10001212
 0.125  0.95757506
 0.126  1.06047399
 0.126  0.97479778
 0.127  0.89634134
 0.127  0.89567991
 0.128  0.71766482
 0.128  0.60243379
 0.129  0.57861488
 0.129  0.59501917
 0.130  0.29332096
 0.130  0.13030952
 0.131  -0.12045780
 0.131  -0.40704992
 0.132  -0.48130913
 0.132  -0.63218753
 0.133  -0.61114183
 0.133  -0.66332691
 0.134  -0.80301318
 0.134  -0.89845706
 0.135  -0.90384378
 0.135  -0.81155330
 0.136  -0.93731569
 0.136  -0.88586947
 0.137  -0.84466807
 0.137  -0.75044274
 0.138  -0.63201897
 0.138  -0.53609778
 0.139  -0.49098194
 0.139  -0.35300315
 0.140  -0.14914698
 0.140  0.11884332
 0.141  0.28706612
 0.141  0.51100915
 0.141  0.62230187
 0.142  0.62253015
 0.142  0.76722916
 0.143  0.83656260
 0.143  0.96342124
 0.144  1.01395351
 0.144  1.01282627
 0.145  1.03977364
 0.145  1.04739883
 0.146  1.03025316
 0.146  0.97265051
 0.147  0.80377972
 0.147  0.79588283
 0.148  0.68807834
 0.148  0.63977535
 0.149  0.49419304
 0.149  0.34998916
 0.150  0.05535732
 0.150  -0.23383676
 0.151  -0.31026811
 0.151  -0.45805154
 0.152  -0.49268098
 0.152  -0.59566168
 0.153  -0.71216915
 0.153  -0.81869275
 0.154  -0.81541727
 0.154  -0.85997382
 0.155  -0.83587368
 0.155  -0.83799883
 0.156  -0.82931909
 0.157  -0.74080149
 0.157  -0.77393739
 0.158  -0.51448745
 0.158  -0.58228373
 0.159  -0.47524181
 0.159  -0.27719940
 0.160  -0.19232574
 0.160  0.08049966
 0.161  0.32584201
 0.161  0.60032417
 0.162  0.58060010
 0.162  0.60152018
 0.163  0.83663479
 0.163  0.82604247
 0.164  1.01036418
 0.164  1.03293798
 0.165  1.02372469
 0.165  1.04127017
 0.166  1.09946274
 0.166  1.11350975
 0.167  1.07985195
 0.167  0.93556554
 0.168  0.82487405
 0.168  0.78997165
 0.169  0.59871983
 0.169  0.57811100
 0.170  0.41150841
 0.170  0.08077517
 0.171  -0.15054292
 0.171  -0.39149210
 0.172  -0.37658434
 0.172  -0.50441711
 0.172  -0.68918853
 0.173  -0.62445132
 0.173  -0.73843581
 0.174  -0.86662538
 0.174  -0.86319152
 0.175  -0.93034489
 0.175  -0.78280632
 0.176  -0.80692459
 0.176  -0.80179063
 0.177  -0.75930630
 0.177  -0.61825195
 0.178  -0.40024896
 0.178  -0.42483051
 0.179  -0.28954831
 0.179  -0.10288460
 0.180  0.08118627
 0.180  0.35012070
 0.181  0.56158746
 0.181  0.67386686
 0.182  0.58370629
 0.182  0.75388344
 0.183  0.90573728
 0.183  0.96369518
 0.184  1.05978332
 0.184  1.12246886
 0.185  1.17363918
 0.185  1.09413006
 0.186  1.06530529
 0.186  1.06614763
 0.187  0.82157181
 0.188  0.80081106
 0.188  0.76120476
 0.189  0.63803485
 0.189  0.57928278
 0.190  0.32336210
 0.190  0.09515855
 0.191  -0.11385748
 0.191  -0.37135426
 0.192  -0.46995199
 0.192  -0.50828858
 0.193  -0.65061455
 0.193  -0.66787687
 0.194  -0.81142733
 0.194  -0.82394565
 0.195  -0.85775857
 0.195  -0.76050940
 0.196  -0.84739362
 0.196  -0.86489379
 0.197  -0.75585955
 0.197  -0.68839024
 0.198  -0.56658904
 0.198  -0.52335476
 0.199  -0.49691124
 0.199  -0.33533108
 0.200  -0.09160987
 0.200  0.09939508
 0.201  0.36498030
 0.201  0.52833775
 0.202  0.61598265
 0.202  0.66193928
 0.203  0.86259632
 0.203  0.92690796
 0.203  0.99130294
 0.204  1.04850289
 0.204  0.98412522
 0.205  1.14210722
 0.205  1.07697114
 0.206  1.03408955
 0.206  1.14006527
 0.207  0.95567604
 0.207  0.85418264
 0.208  0.69863094
 0.208  0.65009123
 0.209  0.53703783
 0.209  0.38539796
 0.210  0.18158735
 0.210  -0.04021981
 0.211  -0.27552147
 0.211  -0.41203280
 0.212  -0.51231141
 0.212  -0.54292452
 0.213  -0.62501362
 0.213  -0.84368436
 0.214  -0.90358498
 0.214  -0.88417943
 0.215  -0.76414828
 0.215  -0.86947747
 0.216  -0.87145506
 0.216  -0.68120480
 0.217  -0.66208609
 0.217  -0.49362204
 0.218  -0.42055115
 0.218  -0.35616008
 0.219  -0.25599412
 0.220  -0.10028969
 0.220  0.10261296
 0.221  0.44691715
 0.221  0.59870333
 0.222  0.65156203
 0.222  0.70331680
 0.223  0.82695510
 0.223  0.89578507
 0.224  1.08537980
 0.224  1.04042680
 0.225  1.09959841
 0.225  1.03908618
 0.226  1.02738619
 0.226  1.07137349
 0.227  1.13046771
 0.227  0.93896626
 0.228  0.84433482
 0.228  0.81776271
 0.229  0.63974749
 0.229  0.53157367
 0.230  0.38005163
 0.230  0.15330170
 0.231  -0.12402225
 0.231  -0.30541345
 0.232  -0.35608038
 0.232  -0.33899845
 0.233  -0.55322705
 0.233  -0.66918380
 0.234  -0.71174090
 0.234  -0.84756906
 0.234  -0.75622792
 0.235  -0.76898119
 0.235  -0.85905344
 0.236  -0.79986230
 0.236  -0.77974860
 0.237  -0.62786961
 0.237  -0.50234692
 0.238  -0.50642381
 0.238  -0.31070869
 0.239  -0.18970885
 0.239  -0.19837262
 0.240  0.12897105
 0.240  0.39516319
 0.241  0.63834888
 0.241  0.76069008
 0.242  0.69197314
 0.242  0.86116591
 0.243  0.88251684
 0.243  1.04605437
 0.244  1.12482966
 0.244  1.12810626
 0.245  1.12848937
 0.245  1.10861753
 0.246  1.11016153
 0.246  1.09476490
 0.247  0.98008839
 0.247  0.86992193
 0.248  0.68390842
 0.248  0.60519632
 0.249  0.62417095
 0.249  0.43158807
 0.250  0.16050248
 0.251  -0.02320422
 0.251  -0.22592144
 0.252  -0.44131528
 0.252  -0.43835923
 0.253  -0.57530365
 0.253  -0.67219654
 0.254  -0.72090160
 0.254  -0.76215422
 0.255  -0.78420167
 0.255  -0.77960474
 0.256  -0.66042561
 0.256  -0.80516655
 0.257  -0.69255477
 0.257  -0.61272813
 0.258  -0.41196612
 0.258  -0.45617130
 0.259  -0.33479185
 0.259  -0.37867679
 0.260  -0.16657337
 0.260  0.11745408
 0.261  0.40524670
 0.261  0.63540206
 0.262  0.69463574
 0.262  0.81785159
 0.263  0.77178863
 0.263  0.87985849
 0.264  1.06394518
 0.264  1.12518407
 0.265  1.13149660
 0.265  1.12848621
 0.266  1.09107151
 0.266  1.11788581
 0.267  1.00944201
 0.267  0.92117853
 0.268  0.87575239
 0.268  0.73719376
 0.269  0.70571872
 0.269  0.59372000
 0.270  0.36837074
 0.270  0.13650078
 0.271  -0.06684479
 0.271  -0.27300316
 0.272  -0.34416219
 0.272  -0.44584094
 0.273  -0.46209854
 0.273  -0.62351421
 0.274  -0.73051703
 0.274  -0.80241956
 0.275  -0.72899729
 0.275  -0.81924818
 0.276  -0.70165091
 0.276  -0.75027218
 0.277  -0.74367066
 0.277  -0.62921312
 0.278  -0.50568879
 0.278  -0.39118006
 0.279  -0.31823499
 0.279  -0.27878553
 0.280  -0.03309609
 0.280  0.27664510
 0.281  0.42883568
 0.281  0.64494094
 0.281  0.67668249
 0.282  0.80121822
 0.282  0.78518320
 0.283  0.90941125
 0.283  1.04926442
 0.284  1.19797405
 0.284  1.13531833
 0.285  1.14471416
 0.285  1.17173210
 0.286  1.13903261
 0.286  1.06962337
 0.287  0.96295103
 0.287  0.82602620
 0.288  0.80891337
 0.288  0.80162980
 0.289  0.58416483
 0.289  0.39399524
 0.290  0.20816007
 0.290  -0.16894605
 0.291  -0.15184880
 0.291  -0.40079884
 0.292  -0.44744958
 0.292  -0.51779811
 0.293  -0.66924136
 0.293  -0.70935893
 0.294  -0.82331184
 0.294  -0.69394609
 0.295  -0.77909422
 0.295  -0.75980401
 0.296  -0.81986959
 0.296  -0.73097866
 0.297  -0.62506553
 0.297  -0.54662228
 0.298  -0.40822408
 0.298  -0.33279437
 0.299  -0.26480549
 0.299  -0.04868782
 0.300  0.16323229
 0.300  0.48368745
 0.301  0.69389569
 0.301  0.74986007
 0.302  0.82952237
 0.302  0.84723797
 0.303  1.00330073
 0.303  1.02931864
 0.304  1.10646399
 0.304  1.10644157
 0.305  1.11700060
 0.305  1.17746348
 0.306  1.07811940
 0.306  1.16239690
 0.307  1.02573851
 0.307  0.96010102
 0.308  0.78634358
 0.308  0.74632213
 0.309  0.70872734
 0.309  0.45815343
 0.310  0.18262981
 0.310  -0.10033186
 0.311  -0.26901219
 0.311  -0.29729240
 0.312  -0.39047964
 0.313  -0.46948624
 0.313  -0.66336273
 0.314  -0.69216883
 0.314  -0.66091539
 0.315  -0.72153321
 0.315  -0.70568235
 0.316  -0.75999764
 0.316  -0.83936483
 0.317  -0.81619795
 0.317  -0.55756566
 0.318  -0.52257092
 0.318  -0.36710610
 0.319  -0.29414074
 0.319  -0.21085505
 0.320  -0.00776233
 0.320  0.26016575
 0.321  0.44489907
 0.321  0.68395975
 0.322  0.82560023
 0.322  0.63994354
 0.323  0.81073842
 0.323  1.04532041
 0.324  1.07764097
 0.324  1.10002865
 0.325  1.17962196
 0.325  1.16242936
 0.326  1.27406542
 0.326  1.13302092
 0.327  1.12677911
 0.327  0.90978097
 0.328  0.84188018
 0.328  0.74035480
 0.329  0.80320053
 0.329  0.65107395
 0.330  0.44034850
 0.330  0.15456612
 0.331  -0.01868297
 0.331  -0.32232552
 0.332  -0.26850295
 0.332  -0.36847410
 0.333  -0.46692941
 0.333  -0.64986461
 0.334  -0.80589730
 0.334  -0.72919752
 0.335  -0.85361901
 0.335  -0.74237692
 0.336  -0.74943858
 0.336  -0.74004900
 0.337  -0.68492970
 0.337  -0.61278758
 0.338  -0.46903097
 0.338  -0.38896615
 0.339  -0.28039773
 0.339  -0.25395431
 0.340  -0.10475148
 0.340  0.14811759
 0.341  0.40299259
 0.341  0.70334607
 0.342  0.70880428
 0.342  0.77793624
 0.343  0.85163591
 0.343  0.97893164
 0.344  1.07134136
 0.344  1.21244552
 0.344  1.14920823
 0.345  1.21036328
 0.345  1.14584990
 0.346  1.15368822
 0.346  1.14634182
 0.347  1.08845898
 0.347  0.93744078
 0.348  0.87455284
 0.348  0.74450588
 0.349  0.62326118
 0.349  0.49020889
 0.350  0.16195245
 0.350  0.00792698
 0.351  -0.28902246
 0.351  -0.29567363
 0.352  -0.37713627
 0.352  -0.45150999
 0.353  -0.48842548
 0.353  -0.64413505
 0.354  -0.72715228
 0.354  -0.68242417
 0.355  -0.71513470
 0.355  -0.72243545
 0.356  -0.70370578
 0.356  -0.69740630
 0.357  -0.56016699
 0.357  -0.48735653
 0.358  -0.46346959
 0.358  -0.34942219
 0.359  -0.24997807
 0.359  0.01001419
 0.360  0.20492095
 0.360  0.53367577
 0.361  0.70473789
 0.361  0.73274024
 0.362  0.76726333
 0.362  0.87749515
 0.363  0.95545290
 0.363  1.18460923
 0.364  1.20220253
 0.364  1.18085644
 0.365  1.27714792
 0.365  1.19508611
 0.366  1.23538088
 0.366  1.09980460
 0.367  0.99701612
 0.367  0.86740695
 0.368  0.73386340
 0.368  0.73262384
 0.369  0.63321950
 0.369  0.47838641
 0.370  0.20805861
 0.370  0.03264432
 0.371  -0.24093409
 0.371  -0.33448463
 0.372  -0.27220397
 0.372  -0.45470411
 0.373  -0.55197327
 0.373  -0.59364174
 0.374  -0.73343122
 0.374  -0.64623338
 0.375  -0.72672145
 0.376  -0.68002432
 0.376  -0.78960669
 0.377  -0.66453079
 0.377  -0.51625111
 0.378  -0.47206027
 0.378  -0.41056864
 0.379  -0.28770778
 0.379  -0.19803417
 0.380  -0.10284681
 0.380  0.16719590
 0.381  0.54974401
 0.381  0.70482218
 0.382  0.77064083
 0.382  0.84810142
 0.383  0.94657875
 0.383  1.04721180
 0.384  1.19363060
 0.384  1.21273347
 0.385  1.08999939
 0.385  1.16883804
 0.386  1.22312923
 0.386  1.15907148
 0.387  1.08167517
 0.387  1.09865573
 0.388  0.95322703
 0.388  0.80215281
 0.389  0.71744168
 0.389  0.76999332
 0.390  0.53287368
 0.390  0.23095317
 0.391  -0.08251409
 0.391  -0.15220015
 0.392  -0.20512335
 0.392  -0.37105246
 0.393  -0.41692541
 0.393  -0.51207769
 0.394  -0.77175370
 0.394  -0.68295816
 0.395  -0.70260726
 0.395  -0.72292476
 0.396  -0.61395149
 0.396  -0.68053183
 0.397  -0.56639687
 0.397  -0.45283489
 0.398  -0.42423271
 0.398  -0.40827623
 0.399  -0.23037002
 0.399  -0.18631702
 0.400  -0.00932446
 0.400  0.35031256
 0.401  0.53926020
 0.401  0.66196927
 0.402  0.88224888
 0.402  0.85764428
 0.403  0.93167333
 0.403  1.01887382
 0.404  1.18420640
 0.404  1.06889462
 0.405  1.19818539
 0.405  1.22360753
 0.406  1.17973432
 0.406  1.12930868
 0.406  1.18288571
 0.407  0.98536024
 0.407  0.90808471
 0.408  0.84952163
 0.408  0.75447688
 0.409  0.74154940
 0.409  0.47837724
 0.410  0.31890175
 0.410  -0.03114153
 0.411  -0.19803585
 0.411  -0.31714438
 0.412  -0.36745648
 0.412  -0.37174678
 0.413  -0.59872113
 0.413  -0.55430940
 0.414  -0.75374939
 0.414  -0.73515268
 0.415  -0.64848772
 0.415  -0.64311973
 0.416  -0.60863357
 0.416  -0.61735529
 0.417  -0.54514981
 0.417  -0.47889655
 0.418  -0.32468163
 0.418  -0.23662825
 0.419  -0.16014213
 0.419  0.09686293
 0.420  0.37986711
 0.420  0.54198793
 0.421  0.76045300
 0.421  0.83552510
 0.422  0.83958197
 0.422  0.82200083
 0.423  1.03434174
 0.423  1.05442100
 0.424  1.18778356
 0.424  1.24643133
 0.425  1.20392328
 0.425  1.28852575
 0.426  1.06260235
 0.426  1.20700242
 0.427  0.98210339
 0.427  1.04614559
 0.428  0.85514190
 0.428  0.79794941
 0.429  0.77441020
 0.429  0.46431203
 0.430  0.19152971
 0.430  0.04807589
 0.431  -0.04855391
 0.431  -0.21564887
 0.432  -0.29145438
 0.432  -0.37763145
 0.433  -0.53610393
 0.433  -0.63678282
 0.434  -0.67236893
 0.434  -0.56623851
 0.435  -0.76558767
 0.435  -0.66487230
 0.436  -0.66405584
 0.436  -0.67972119
 0.437  -0.50209187
 0.438  -0.38966750
 0.438  -0.35457729
 0.439  -0.26152067
 0.439  -0.23144928
 0.440  -0.02798971
 0.440  0.28562211
 0.441  0.55920907
 0.441  0.66022283
 0.442  0.70721606
 0.442  0.83130802
 0.443  0.89729725
 0.443  1.09082895
 0.444  1.21109149
 0.444  1.21307298
 0.445  1.16157448
 0.445  1.21162540
 0.446  1.23118443
 0.446  1.22650517
 0.447  1.16391050
 0.447  1.02465179
 0.448  1.09915469
 0.448  0.87075507
 0.449  0.83259068
 0.449  0.72060872
 0.450  0.60630328
 0.450  0.28457168
 0.451  0.03364699
 0.451  -0.08025465
 0.452  -0.33218345
 0.452  -0.31177382
 0.453  -0.42587313
 0.453  -0.51474972
 0.454  -0.61970726
 0.454  -0.68746591
 0.455  -0.63649994
 0.455  -0.70280957
 0.456  -0.72016752
 0.456  -0.57769476
 0.457  -0.54338442
 0.457  -0.44858612
 0.458  -0.25892613
 0.458  -0.20742011
 0.459  -0.27122717
 0.459  -0.11218729
 0.460  0.05557810
 0.460  0.28481019
 0.461  0.61028086
 0.461  0.77822556
 0.462  0.87268427
 0.462  0.81719394
 0.463  0.98252359
 0.463  1.01213605
 0.464  1.16595196
 0.464  1.21670603
 0.465  1.24823056
 0.465  1.20603677
 0.466  1.33730889
 0.466  1.18216771
 0.467  1.20774336
 0.467  1.11586067
 0.468  0.93669769
 0.468  0.89608582
 0.469  0.82727391
 0.469  0.64697141
 0.469  0.54351639
 0.470  0.39408812
 0.470  -0.01790576
 0.471  -0.21952709
 0.471  -0.23310127
 0.472  -0.32165070
 0.472  -0.29292579
 0.473  -0.52067579
 0.473  -0.68252003
 0.474  -0.63658880
 0.474  -0.68712886
 0.475  -0.75794618
 0.475  -0.63121362
 0.476  -0.66038354
 0.476  -0.60213842
 0.477  -0.54548541
 0.477  -0.33841063
 0.478  -0.29603223
 0.478  -0.19775237
 0.479  -0.20097350
 0.479  0.13766497
 0.480  0.27469280
 0.480  0.55955273
 0.481  0.69873103
 0.481  0.69921209
 0.482  1.02001385
 0.482  0.97407045
 0.483  1.03714241
 0.483  1.19535589
 0.484  1.23037332
 0.484  1.27220499
 0.485  1.21078748
 0.485  1.22371652
 0.486  1.21945162
 0.486  1.14363236
 0.487  1.04400270
 0.487  0.96771698
 0.488  0.94364249
 0.488  0.74261297
 0.489  0.77674156
 0.489  0.64530749
 0.490  0.27270114
 0.490  0.07036396
 0.491  -0.14645741
 0.491  -0.35802814
 0.492  -0.26683834
 0.492  -0.41583718
 0.493  -0.52050702
 0.493  -0.65632723
 0.494  -0.64243283
 0.494  -0.61994349
 0.495  -0.69795536
 0.495  -0.66080108
 0.496  -0.67022161
 0.496  -0.55452127
 0.497  -0.45766390
 0.497  -0.37827247
 0.498  -0.26657059
 0.498  -0.25383350
 0.499  -0.11301367
 0.499  0.00318705
 0.500  0.33932328
 0.500  0.54895820
 0.501  0.74728950
 0.501  0.88414894
 0.502  0.89968516
 0.502  0.95930929
 0.503  1.10717781
 0.503  1.22134589
 0.504  1.27912896
 0.504  1.23967805
 0.505  1.21549567
 0.505  1.31564196
 0.506  1.24362057
 0.506  1.22272980
 0.507  1.00683954
 0.507  0.99052864
 0.508  0.97546532
 0.508  0.82680228
 0.509  0.75024598
 0.509  0.61543644
 0.510  0.38022723
 0.510  0.06247910
 0.511  -0.06184057
 0.511  -0.21766801
 0.512  -0.33810533
 0.512  -0.37081268
 0.513  -0.45903309
 0.513  -0.57348918
 0.514  -0.63427352
 0.514  -0.63983192
 0.515  -0.60330789
 0.515  -0.64323809
 0.516  -0.73841560
 0.516  -0.58628090
 0.517  -0.49886692
 0.517  -0.31745296
 0.518  -0.29427323
 0.518  -0.30019256
 0.519  -0.15083210
 0.519  0.06281473
 0.520  0.40632810
 0.520  0.59459493
 0.521  0.77509126
 0.521  0.88517391
 0.522  0.97895778
 0.522  1.10559291
 0.523  1.09346071
 0.523  1.12880561
 0.524  1.27029925
 0.524  1.26877088
 0.525  1.25514474
 0.525  1.19129090
 0.526  1.20129021
 0.526  1.20356836
 0.527  1.06387126
 0.527  1.07284801
 0.528  0.98661827
 0.528  0.92959862
 0.529  0.80678436
 0.529  0.63732796
 0.530  0.39725516
 0.530  -0.01664229
 0.531  -0.00299617
 0.531  -0.21582316
 0.532  -0.29773661
 0.532  -0.34441739
 0.533  -0.45562198
 0.533  -0.58890016
 0.534  -0.60640160
 0.534  -0.70533788
 0.535  -0.63208973
 0.535  -0.56964084
 0.536  -0.63865399
 0.536  -0.55311327
 0.537  -0.48958835
 0.537  -0.37508350
 0.538  -0.26987154
 0.538  -0.11973813
 0.539  -0.11164118
 0.539  0.11334803
 0.540  0.30754158
 0.540  0.58851861
 0.541  0.70529607
 0.541  0.87958208
 0.542  0.98910464
 0.542  0.97488441
 0.543  1.18115523
 0.543  1.22486144
 0.544  1.34820603
 0.544  1.27062952
 0.545  1.33183433
 0.545  1.24361385
 0.546  1.25021102
 0.546  1.22380706
 0.547  1.17189491
 0.547  1.01237801
 0.548  0.90273337
 0.548  0.87588050
 0.549  0.69892011
 0.549  0.59261000
 0.550  0.36320361
 0.550  0.16139284
 0.551  -0.10199929
 0.551  -0.20499876
 0.552  -0.21734810
 0.552  -0.31040868
 0.553  -0.36140640
 0.553  -0.57945085
 0.554  -0.51325391
 0.554  -0.61065359
 0.555  -0.56534584
 0.555  -0.61729361
 0.556  -0.62317028
 0.556  -0.60062208
 0.557  -0.53736154
 0.557  -0.31118883
 0.558  -0.23559322
 0.558  -0.10499774
 0.559  -0.08001590
 0.559  0.04939966
 0.560  0.36326628
 0.560  0.68670042
 0.561  0.76538102
 0.561  0.81716519
 0.562  0.93944342
 0.563  0.95374329
 0.563  1.15583233
 0.564  1.19392856
 0.564  1.23649143
 0.565  1.28524347
 0.565  1.31251912
 0.566  1.32032180
 0.566  1.27476393
 0.567  1.15043018
 0.567  1.16201917
 0.568  1.05464237
 0.568  0.98528669
 0.569  0.96433312
 0.569  0.84010932
 0.570  0.69545807
 0.570  0.24522586
 0.571  -0.00806498
 0.571  -0.15926679
 0.572  -0.25247031
 0.572  -0.19981557
 0.573  -0.24144138
 0.573  -0.46997820
 0.574  -0.54033605
 0.574  -0.55737890
 0.575  -0.61295685
 0.575  -0.61598349
 0.576  -0.66204418
 0.576  -0.57571416
 0.577  -0.51921581
 0.577  -0.51913395
 0.578  -0.35391645
 0.578  -0.21455596
 0.579  -0.18128596
 0.579  -0.09230293
 0.580  0.11685803
 0.580  0.33321345
 0.581  0.62680699
 0.581  0.77848899
 0.582  0.90402354
 0.582  0.97642206
 0.583  1.03652649
 0.583  1.19300342
 0.584  1.13907441
 0.584  1.35389328
 0.585  1.34394822
 0.585  1.31878496
 0.586  1.29570191
 0.586  1.36311504
 0.587  1.39967291
 0.587  1.16862725
 0.588  1.08936049
 0.588  0.92699409
 0.589  0.79942594
 0.589  0.81918553
 0.590  0.60023923
 0.590  0.37506878
 0.591  0.10062345
 0.591  -0.14385879
 0.592  -0.15996455
 0.592  -0.20716799
 0.593  -0.33027518
 0.593  -0.39994814
 0.594  -0.50417329
 0.594  -0.68869174
 0.595  -0.60924474
 0.595  -0.66613811
 0.596  -0.55999624
 0.596  -0.56099318
 0.597  -0.55736895
 0.597  -0.47744872
 0.598  -0.23572670
 0.598  -0.27873525
 0.599  -0.18275237
 0.599  -0.02235811
 0.600  0.08393189
 0.600  0.45688594
 0.601  0.59724894
 0.601  0.80573927
 0.602  0.83809340
 0.602  0.99280351
 0.603  1.01161442
 0.603  1.10877556
 0.604  1.20869045
 0.604  1.30412437
 0.605  1.32585634
 0.605  1.36702905
 0.606  1.28633091
 0.606  1.26570801
 0.607  1.28843568
 0.607  1.13736402
 0.608  1.09381553
 0.608  0.95736171
 0.609  0.95614535
 0.609  0.84061677
 0.610  0.60495322
 0.610  0.46622807
 0.611  0.11056747
 0.611  -0.07944718
 0.612  -0.16455932
 0.612  -0.13802110
 0.613  -0.29940358
 0.613  -0.36250676
 0.614  -0.51383619
 0.614  -0.48954293
 0.615  -0.63805742
 0.615  -0.55774756
 0.616  -0.50772954
 0.616  -0.54737438
 0.617  -0.51048244
 0.617  -0.39524033
 0.618  -0.21176078
 0.618  -0.28888366
 0.619  -0.14381757
 0.619  -0.03178479
 0.620  0.15956381
 0.620  0.44148615
 0.621  0.48128312
 0.621  0.87254190
 0.622  0.91808467
 0.622  0.91911910
 0.623  1.14923778
 0.623  1.18813635
 0.624  1.31276245
 0.624  1.37550113
 0.625  1.26128433
 0.625  1.25719787
 0.625  1.38152700
 0.626  1.37274678
 0.626  1.31013704
 0.627  1.15776911
 0.627  1.08404046
 0.628  0.97750589
 0.628  0.95255162
 0.629  0.82146081
 0.629  0.70205753
 0.630  0.35820559
 0.630  0.06446532
 0.631  -0.04052439
 0.631  -0.20919867
 0.632  -0.22616184
 0.632  -0.25750370
 0.633  -0.44570790
 0.633  -0.46180545
 0.634  -0.59487350
 0.634  -0.58601490
 0.635  -0.59518937
 0.635  -0.62838896
 0.636  -0.60403020
 0.636  -0.52630681
 0.637  -0.46612963
 0.637  -0.17158503
 0.638  -0.07639606
 0.638  -0.18188456
 0.639  -0.04925573
 0.639  0.10098101
 0.640  0.33604533
 0.640  0.55605886
 0.641  0.89028260
 0.641  0.93780774
 0.642  0.97340479
 0.642  1.07444643
 0.643  1.11076847
 0.643  1.22302194
 0.644  1.32685158
 0.644  1.39267783
 0.645  1.29939649
 0.645  1.33916092
 0.646  1.32627858
 0.646  1.21339629
 0.647  1.19831589
 0.647  1.11130642
 0.648  0.99776835
 0.648  0.89698719
 0.649  0.82380547
 0.649  0.70795332
 0.650  0.36500279
 0.650  0.12407180
 0.651  -0.07158033
 0.651  -0.26387793
 0.652  -0.20878015
 0.652  -0.25317465
 0.653  -0.42491583
 0.653  -0.49136995
 0.654  -0.51996696
 0.654  -0.53311890
 0.655  -0.61164441
 0.655  -0.62103217
 0.656  -0.47424065
 0.656  -0.57539296
 0.657  -0.37074342
 0.657  -0.29842893
 0.658  -0.27610801
 0.658  -0.07852529
 0.659  -0.09271964
 0.659  0.18132923
 0.660  0.47839328
 0.660  0.63556829
 0.661  0.86781112
 0.661  0.95986706
 0.662  0.91504333
 0.662  1.00394008
 0.663  1.19605237
 0.663  1.40817076
 0.664  1.32111466
 0.664  1.33425367
 0.665  1.30741284
 0.665  1.39820087
 0.666  1.25168883
 0.666  1.28319827
 0.667  1.17841482
 0.667  1.07480873
 0.668  0.88981418
 0.668  0.96104655
 0.669  0.82491473
 0.669  0.75435952
 0.670  0.44757126
 0.670  0.19703420
 0.671  -0.02731537
 0.671  -0.11293215
 0.672  -0.13411193
 0.672  -0.26092414
 0.673  -0.26683634
 0.673  -0.45755671
 0.674  -0.51773809
 0.674  -0.50520934
 0.675  -0.56641650
 0.675  -0.56400934
 0.676  -0.44096338
 0.676  -0.45668375
 0.677  -0.39429205
 0.677  -0.26781109
 0.678  -0.15627524
 0.678  -0.12863467
 0.679  -0.06815207
 0.679  0.10400102
 0.680  0.41466211
 0.680  0.67311842
 0.681  0.84406048
 0.681  1.03231450
 0.682  0.93046915
 0.682  1.08596414
 0.683  1.21805661
 0.683  1.32702551
 0.684  1.36258877
 0.684  1.43643613
 0.685  1.38818291
 0.685  1.42387636
 0.686  1.39648717
 0.686  1.35728785
 0.687  1.27340598
 0.688  1.10084315
 0.688  1.01307317
 0.689  0.96942578
 0.689  0.87331633
 0.690  0.65611890
 0.690  0.37042190
 0.691  0.14358448
 0.691  -0.06562121
 0.692  -0.18642343
 0.692  -0.10604253
 0.693  -0.21788381
 0.693  -0.44058862
 0.694  -0.46047387
 0.694  -0.54059189
 0.695  -0.51891317
 0.695  -0.45649025
 0.696  -0.58772044
 0.696  -0.57253299
 0.697  -0.51250477
 0.697  -0.28936290
 0.698  -0.19107027
 0.698  -0.20035328
 0.699  -0.11480880
 0.699  -0.01521078
 0.700  0.17431248
 0.700  0.46580314
 0.701  0.66939468
 0.701  0.81232606
 0.702  0.97429833
 0.702  1.05961911
 0.703  1.06214724
 0.703  1.22782699
 0.704  1.32910139
 0.704  1.28128192
 0.705  1.35504066
 0.705  1.35115440
 0.706  1.42412375
 0.706  1.37724103
 0.707  1.36403178
 0.707  1.21447402
 0.708  0.99046354
 0.708  0.98383880
 0.709  0.91205207
 0.709  0.85736570
 0.710  0.73268422
 0.710  0.46324156
 0.711  0.08787060
 0.711  -0.04732338
 0.712  -0.05236838
 0.712  -0.21216686
 0.713  -0.17154834
 0.713  -0.33661556
 0.714  -0.51829494
 0.714  -0.53030565
 0.715  -0.47310981
 0.715  -0.54135561
 0.716  -0.54642910
 0.716  -0.54911264
 0.717  -0.53730647
 0.717  -0.34027359
 0.718  -0.20173420
 0.718  -0.10987439
 0.719  -0.02890997
 0.719  -0.04014889
 0.720  0.19996683
 0.720  0.41667063
 0.721  0.69517518
 0.721  0.83504840
 0.722  0.98443507
 0.722  1.07290607
 0.723  1.13229524
 0.723  1.25797482
 0.724  1.38696320
 0.724  1.37573308
 0.725  1.43684817
 0.725  1.36801263
 0.726  1.40206878
 0.726  1.39105418
 0.727  1.31530492
 0.727  1.28820110
 0.728  1.07511200
 0.728  1.00743125
 0.729  0.97360573
 0.729  0.92471639
 0.730  0.65448819
 0.730  0.43187522
 0.731  0.17314644
 0.731  0.02811788
 0.732  -0.02906708
 0.732  -0.04459511
 0.733  -0.18382326
 0.733  -0.28481096
 0.734  -0.48893596
 0.734  -0.47572099
 0.735  -0.53121477
 0.735  -0.45655113
 0.736  -0.54128538
 0.736  -0.51637179
 0.737  -0.44873771
 0.737  -0.32602244
 0.738  -0.29733640
 0.738  -0.14008018
 0.739  -0.12297722
 0.739  0.05397780
 0.740  0.22726556
 0.740  0.33756053
 0.741  0.65730706
 0.741  0.99964340
 0.742  1.03472912
 0.742  1.03922855
 0.743  1.04260255
 0.743  1.20160298
 0.744  1.34437920
 0.744  1.47845835
 0.745  1.37844248
 0.745  1.42398513
 0.746  1.34374048
 0.746  1.44689630
 0.747  1.29718336
 0.747  1.23814284
 0.748  1.12721872
 0.748  1.03537504
 0.749  0.93898463
 0.749  0.81512184
 0.750  0.73724148
 0.750  0.47154194
 0.750  0.19029287
 0.751  -0.06295775
 0.751  -0.07156752
 0.752  -0.13422509
 0.752  -0.16191745
 0.753  -0.32046326
 0.753  -0.47410658
 0.754  -0.45014809
 0.754  -0.61520367
 0.755  -0.45848882
 0.755  -0.45614682
 0.756  -0.50505583
 0.756  -0.51315792
 0.757  -0.33952633
 0.757  -0.31494683
 0.758  -0.18565601
 0.758  0.01155102
 0.759  0.01161668
 0.759  0.18371163
 0.760  0.49551831
 0.760  0.76174802
 0.761  0.88067878
 0.761  0.99429739
 0.762  1.07676661
 0.762  1.17380892
 0.763  1.12163214
 0.763  1.34740403
 0.764  1.35458381
 0.764  1.47029213
 0.765  1.43828025
 0.765  1.37238876
 0.766  1.49083442
 0.766  1.31980028
 0.767  1.34112092
 0.767  1.13066886
 0.768  1.04153861
 0.768  0.95143836
 0.769  0.88898951
 0.769  0.73350041
 0.770  0.45372591
 0.770  0.25383313
 0.771  0.03052841
 0.771  -0.12068473
 0.772  -0.17654134
 0.772  -0.22078076
 0.773  -0.31407752
 0.773  -0.41114534
 0.774  -0.49336426
 0.774  -0.50505830
 0.775  -0.50126064
 0.775  -0.39773473
 0.776  -0.46678793
 0.776  -0.42971975
 0.777  -0.31809700
 0.777  -0.24861597
 0.778  -0.18874369
 0.778  -0.07840643
 0.779  0.06281815
 0.779  0.18021380
 0.780  0.47600625
 0.780  0.72183610
 0.781  0.96395893
 0.781  1.04913266
 0.782  1.13978193
 0.782  1.14124971
 0.783  1.25851347
 0.783  1.36316875
 0.784  1.46940938
 0.784  1.36676788
 0.785  1.57861884
 0.785  1.42265017
 0.786  1.45551249
 0.786  1.32674800
 0.787  1.29620409
 0.787  1.27182533
 0.788  1.11762288
 0.788  0.99980330
 0.789  0.89856917
 0.789  0.66066589
 0.790  0.47134919
 0.790  0.22896663
 0.791  0.03587179
 0.791  -0.00748143
 0.792  -0.12704034
 0.792  -0.24607378
 0.793  -0.32191361
 0.793  -0.40237724
 0.794  -0.60906255
 0.794  -0.43805670
 0.795  -0.50355605
 0.795  -0.50357612
 0.796  -0.46833499
 0.796  -0.42468960
 0.797  -0.35176946
 0.797  -0.20819578
 0.798  -0.04012456
 0.798  -0.02105842
 0.799  0.03416984
 0.799  0.24091516
 0.800  0.51808223
 0.800  0.73097917
 0.801  0.91205825
 0.801  1.02306584
 0.802  1.02096199
 0.802  1.21429155
 0.803  1.26580995
 0.803  1.38177163
 0.804  1.47241700
 0.804  1.53031805
 0.805  1.44213788
 0.805  1.33643005
 0.806  1.48247555
 0.806  1.40130554
 0.807  1.36686218
 0.807  1.14699785
 0.808  1.09531243
 0.808  1.03210434
 0.809  0.90283120
 0.809  0.80245778
 0.810  0.50325872
 0.810  0.32161506
 0.811  -0.03544856
 0.811  -0.00931029
 0.812  -0.10784460
 0.813  -0.13424803
 0.813  -0.29313550
 0.814  -0.44197801
 0.814  -0.55511567
 0.815  -0.45837502
 0.815  -0.43812256
 0.816  -0.48466340
 0.816  -0.40786759
 0.817  -0.39322023
 0.817  -0.24416614
 0.818  -0.07747321
 0.818  -0.13609085
 0.819  -0.06383925
 0.819  0.03503280
 0.820  0.19468668
 0.820  0.53415721
 0.821  0.71976233
 0.821  0.95394185
 0.822  1.00677709
 0.822  1.04984965
 0.823  1.14584243
 0.823  1.29126487
 0.824  1.42054599
 0.824  1.47211089
 0.825  1.46217594
 0.825  1.44177652
 0.826  1.45486926
 0.826  1.42218858
 0.827  1.38199587
 0.827  1.29614352
 0.828  1.19018117
 0.828  1.05820295
 0.829  0.95455430
 0.829  0.99110664
 0.830  0.81357549
 0.830  0.53678992
 0.831  0.22672655
 0.831  0.03640544
 0.832  0.02651912
 0.832  -0.15966461
 0.833  -0.19800750
 0.833  -0.27004703
 0.834  -0.38839268
 0.834  -0.43712753
 0.835  -0.38249707
 0.835  -0.50224755
 0.836  -0.40570504
 0.836  -0.47110306
 0.837  -0.42967633
 0.837  -0.27356020
 0.838  -0.18190034
 0.838  -0.09208202
 0.839  -0.08440115
 0.839  0.03035131
 0.840  0.18851228
 0.840  0.48992005
 0.841  0.80547953
 0.841  0.98440807
 0.842  1.02654555
 0.842  1.03678400
 0.843  1.17294311
 0.843  1.30643900
 0.844  1.38907351
 0.844  1.43500974
 0.845  1.46272381
 0.845  1.55283347
 0.846  1.48916834
 0.846  1.47302163
 0.847  1.43263278
 0.847  1.38318926
 0.848  1.17391571
 0.848  1.13627499
 0.849  1.03983790
 0.849  1.10444005
 0.850  0.76622452
 0.850  0.53790182
 0.851  0.21692725
 0.851  0.06071519
 0.852  -0.01174740
 0.852  -0.10595628
 0.853  -0.11965286
 0.853  -0.28234292
 0.854  -0.51415175
 0.854  -0.48491880
 0.855  -0.45041215
 0.855  -0.38959190
 0.856  -0.37476006
 0.856  -0.42435843
 0.857  -0.36197989
 0.857  -0.26586675
 0.858  -0.24108721
 0.858  -0.02891888
 0.859  0.03235725
 0.859  0.10146069
 0.860  0.25968797
 0.860  0.57013918
 0.861  0.74683691
 0.861  0.92028319
 0.862  1.04891315
 0.862  1.09167927
 0.863  1.15565448
 0.863  1.33998671
 0.864  1.40807916
 0.864  1.50105698
 0.865  1.49014030
 0.865  1.46520598
 0.866  1.40846513
 0.866  1.54707441
 0.867  1.41482491
 0.867  1.30810029
 0.868  1.21169635
 0.868  1.08323051
 0.869  1.02313227
 0.869  0.94806338
 0.870  0.69965631
 0.870  0.52373097
 0.871  0.30075146
 0.871  0.08872904
 0.872  -0.05648710
 0.872  -0.01925262
 0.873  -0.21318559
 0.873  -0.19481464
 0.874  -0.36149786
 0.874  -0.49152939
 0.875  -0.46301459
 0.875  -0.40146952
 0.875  -0.38694291
 0.876  -0.45576318
 0.876  -0.37869907
 0.877  -0.35137642
 0.877  -0.16902721
 0.878  -0.03210253
 0.878  -0.02336964
 0.879  0.11524261
 0.879  0.23293727
 0.880  0.51247982
 0.880  0.80754304
 0.881  1.04664544
 0.881  1.11487849
 0.882  1.17487761
 0.882  1.20564531
 0.883  1.29179233
 0.883  1.34190765
 0.884  1.52486149
 0.884  1.33023365
 0.885  1.47598413
 0.885  1.41883421
 0.886  1.41688613
 0.886  1.41751888
 0.887  1.32235083
 0.887  1.28885211
 0.888  1.21123382
 0.888  1.10195048
 0.889  0.96580167
 0.889  0.76081528
 0.890  0.54631875
 0.890  0.28094726
 0.891  0.00737233
 0.891  -0.00081107
 0.892  -0.04635702
 0.892  -0.23242733
 0.893  -0.25167710
 0.893  -0.39545651
 0.894  -0.48736106
 0.894  -0.43210567
 0.895  -0.40716648
 0.895  -0.37101989
 0.896  -0.41562148
 0.896  -0.23503583
 0.897  -0.21987008
 0.897  -0.12216499
 0.898  0.03311269
 0.898  -0.05837193
 0.899  0.03529216
 0.899  0.34099590
 0.900  0.64892672
 0.900  0.82424210
 0.901  0.99172017
 0.901  0.98612933
 0.902  1.16089642
 0.902  1.20613578
 0.903  1.38718527
 0.903  1.52396372
 0.904  1.58388712
 0.904  1.55914265
 0.905  1.54137918
 0.905  1.58047823
 0.906  1.48323281
 0.906  1.29275172
 0.907  1.29994843
 0.907  1.34685969
 0.908  1.07225777
 0.908  1.08492932
 0.909  1.05872317
 0.909  0.77800769
 0.910  0.44888763
 0.910  0.28808495
 0.911  0.15218172
 0.911  0.04202661
 0.912  -0.10907791
 0.912  -0.15982745
 0.913  -0.21627834
 0.913  -0.42608881
 0.914  -0.31012986
 0.914  -0.37236524
 0.915  -0.38911915
 0.915  -0.39879983
 0.916  -0.41867133
 0.916  -0.35137680
 0.917  -0.33278049
 0.917  -0.05578089
 0.918  -0.00584871
 0.918  -0.01151412
 0.919  -0.01025318
 0.919  0.26558275
 0.920  0.54909856
 0.920  0.83899684
 0.921  0.95939833
 0.921  1.10166492
 0.922  1.14854339
 0.922  1.25597050
 0.923  1.35502929
 0.923  1.42467094
 0.924  1.49373238
 0.924  1.43392078
 0.925  1.56175316
 0.925  1.43488068
 0.926  1.45938010
 0.926  1.39793463
 0.927  1.25839538
 0.927  1.19515259
 0.928  1.09066701
 0.928  1.14038785
 0.929  0.99689952
 0.929  0.76253476
 0.930  0.59425302
 0.930  0.23565624
 0.931  0.12646926
 0.931  0.03686960
 0.932  -0.14401965
 0.932  -0.12741840
 0.933  -0.18531796
 0.933  -0.35327255
 0.934  -0.45018101
 0.934  -0.36850328
 0.935  -0.45898186
 0.935  -0.46641372
 0.936  -0.43315873
 0.936  -0.35730935
 0.937  -0.14803352
 0.938  -0.09891141
 0.938  -0.01884271
 0.939  0.04779625
 0.939  0.15810405
 0.940  0.22853908
 0.940  0.52589011
 0.941  0.80851490
 0.941  0.96566554
 0.942  1.11059519
 0.942  1.13052195
 0.943  1.24181098
 0.943  1.35400049
 0.944  1.47850236
 0.944  1.48226853
 0.945  1.47411812
 0.945  1.40994011
 0.946  1.62566227
 0.946  1.51934129
 0.947  1.42130059
 0.947  1.29407431
 0.948  1.16151125
 0.948  1.17025007
 0.949  1.09513492
 0.949  0.98085870
 0.950  0.80713772
 0.950  0.55662678
 0.951  0.39891879
 0.951  0.11097540
 0.952  -0.00629576
 0.952  -0.01043896
 0.953  -0.06442746
 0.953  -0.13198548
 0.954  -0.40667517
 0.954  -0.36509271
 0.955  -0.33944865
 0.955  -0.40241619
 0.956  -0.43115297
 0.956  -0.37759179
 0.957  -0.34447521
 0.957  -0.22345712
 0.958  -0.15989046
 0.958  -0.06447687
 0.959  0.05260661
 0.959  0.15912423
 0.960  0.30113523
 0.960  0.57450066
 0.961  0.82451452
 0.961  0.90476294
 0.962  1.05082994
 0.962  1.13066735
 0.963  1.33223831
 0.963  1.30661696
 0.964  1.53589644
 0.964  1.55432890
 0.965  1.52418272
 0.965  1.48917016
 0.966  1.44808182
 0.966  1.53145860
 0.967  1.41122594
 0.967  1.27972828
 0.968  1.24231614
 0.968  1.19770734
 0.969  1.07560755
 0.969  1.03101436
 0.970  0.83966670
 0.970  0.68477529
 0.971  0.37241364
 0.971  0.07414975
 0.972  0.03585415
 0.972  -0.02906558
 0.973  -0.13228955
 0.973  -0.20803007
 0.974  -0.29906454
 0.974  -0.21949387
 0.975  -0.36446091
 0.975  -0.42440518
 0.976  -0.39937779
 0.976  -0.33367264
 0.977  -0.37828910
 0.977  -0.22293572
 0.978  -0.05615083
 0.978  -0.01874289
 0.979  0.07968472
 0.979  0.10110874
 0.980  0.30212139
 0.980  0.49816406
 0.981  0.84671903
 0.981  1.07025745
 0.982  1.12283054
 0.982  1.22319606
 0.983  1.22212995
 0.983  1.37006074
 0.984  1.52296353
 0.984  1.44699108
 0.985  1.54339956
 0.985  1.46336485
 0.986  1.58909133
 0.986  1.54276741
 0.987  1.46321172
 0.987  1.33844682
 0.988  1.24387341
 0.988  1.20158842
 0.989  1.23822473
 0.989  0.95033755
 0.990  0.86219203
 0.990  0.58705258
 0.991  0.43660828
 0.991  0.18082466
 0.992  0.00475298
 0.992  0.03401003
 0.993  -0.13972224
 0.993  -0.16313299
 0.994  -0.40216190
 0.994  -0.38698533
 0.995  -0.36899723
 0.995  -0.31085682
 0.996  -0.43465349
 0.996  -0.34676771
 0.997  -0.30448211
 0.997  -0.13888525
 0.998  -0.15271417
 0.998  -0.01058256
 0.999  0.02698726
 0.999  0.10681402
 1.000  0.32223526
 1.000  0.56909082
 1.000  0.85147345
 1.001  1.03207020
 1.002  1.10349058
 1.002  1.16535299
 1.002  1.27942475
 1.003  1.47900155
 1.004  1.46608318
 1.004  1.61068744
 1.004  1.52168360
 1.005  1.58306140
 1.006  1.59047521
 1.006  1.48544396
 1.006  1.44460274
 1.007  1.34213522
 1.008  1.23411461
 1.008  1.16866163
 1.008  1.00828987
 1.009  1.07237178
 1.010  0.84001889
 1.010  0.51090215
 1.010  0.37748291
 1.011  0.12501167
 1.012  -0.01161329
 1.012  0.07633742
 1.012  -0.00364153
 1.013  -0.18964914
 1.014  -0.37248149
 1.014  -0.35537962
 1.014  -0.36360099
 1.015  -0.42963874
 1.016  -0.30151140
 1.016  -0.37487509
 1.016  -0.26407054
 1.017  -0.18333605
 1.018  -0.03304836
 1.018  -0.01317414
 1.018  0.00906075
 1.019  0.19533536
 1.020  0.25405390
 1.020  0.54469818
 1.020  0.84954898
 1.021  1.00079247
 1.022  1.12113586
 1.022  1.22547168
 1.022  1.19809996
 1.023  1.37671014
 1.024  1.50438861
 1.024  1.60039351
 1.024  1.52583456
 1.025  1.56486270
 1.026  1.58729501
 1.026  1.60665212
 1.026  1.54742791
 1.027  1.38998422
 1.028  1.33750903
 1.028  1.25253801
 1.028  1.09112536
 1.029  1.05755271
 1.030  0.90144933
 1.030  0.60052804
 1.030  0.41357177
 1.031  0.17756317
 1.032  0.00196600
 1.032  0.05332479
 1.032  -0.04473958
 1.033  -0.13590806
 1.034  -0.32463699
 1.034  -0.31263204
 1.034  -0.39493884
 1.035  -0.36614884
 1.036  -0.35975569
 1.036  -0.32218082
 1.036  -0.39504485
 1.037  -0.28290932
 1.038  -0.00270253
 1.038  0.00786983
 1.038  0.03109318
 1.039  0.16294660
 1.040  0.38050229
 1.040  0.59902833
 1.040  0.87833137
 1.041  0.99168020
 1.042  1.23136794
 1.042  1.23527522
 1.042  1.20162817
 1.043  1.45388357
 1.044  1.49475760
 1.044  1.49792284
 1.044  1.47777061
 1.045  1.53517359
 1.046  1.59129655
 1.046  1.61320863
 1.046  1.57218913
 1.047  1.46264791
 1.048  1.31207604
 1.048  1.19676322
 1.048  1.11191134
 1.049  1.01660405
 1.050  0.90927308
 1.050  0.52792948
 1.050  0.30481870
 1.051  0.18820481
 1.052  0.03002690
 1.052  0.09517635
 1.052  -0.03908539
 1.053  -0.19617946
 1.054  -0.38947595
 1.054  -0.30183903
 1.054  -0.35173748
 1.055  -0.23905076
 1.056  -0.33852635
 1.056  -0.31079614
 1.056  -0.32779633
 1.057  -0.14017461
 1.058  0.07031848
 1.058  -0.04051280
 1.058  0.08927889
 1.059  0.13118419
 1.060  0.38691640
 1.060  0.60565583
 1.060  0.89645848
 1.061  1.03499424
 1.062  1.12213674
 1.062  1.14500164
 1.063  1.40018625
 1.063  1.43012336
 1.063  1.46105143
 1.064  1.55491505
 1.065  1.57615311
 1.065  1.57614420
 1.065  1.61438256
 1.066  1.52395814
 1.067  1.54535620
 1.067  1.34421169
 1.067  1.31333779
 1.068  1.24314322
 1.069  1.13696898
 1.069  1.12598104
 1.069  0.82341942
 1.070  0.63364231
 1.071  0.28487053
 1.071  0.16332098
 1.071  0.12434939
 1.072  0.10069079
 1.073  -0.10424620
 1.073  -0.15121450
 1.073  -0.27821104
 1.074  -0.24755132
 1.075  -0.35826510
 1.075  -0.32482824
 1.075  -0.39911703
 1.076  -0.20984487
 1.077  -0.24271145
 1.077  -0.16520671
 1.077  -0.08417903
 1.078  0.04949658
 1.079  0.16442402
 1.079  0.20954299
 1.079  0.34934836
 1.080  0.65888141
 1.081  0.97198507
 1.081  1.02033314
 1.081  1.20325070
 1.082  1.22205619
 1.083  1.24216607
 1.083  1.41044003
 1.083  1.46324500
 1.084  1.47745369
 1.085  1.60472443
 1.085  1.60333758
 1.085  1.60496757
 1.086  1.59585216
 1.087  1.52133201
 1.087  1.39955709
 1.087  1.35193369
 1.088  1.29597858
 1.089  1.20818096
 1.089  1.18055657
 1.089  0.94116941
 1.090  0.62958002
 1.091  0.37133028
 1.091  0.19380477
 1.091  0.02515765
 1.092  0.06510580
 1.093  -0.06208522
 1.093  -0.14873079
 1.093  -0.26639870
 1.094  -0.36162711
 1.095  -0.31655061
 1.095  -0.23492915
 1.095  -0.29885506
 1.096  -0.33018244
 1.097  -0.23332909
 1.097  -0.16092007
 1.097  -0.02319296
 1.098  0.02814174
 1.099  0.21289245
 1.099  0.24640537
 1.099  0.39726660
 1.100  0.59794090
 1.101  0.84470234
 1.101  1.10414642
 1.101  1.04242525
 1.102  1.13801687
 1.103  1.26891844
 1.103  1.41669968
 1.103  1.44584868
 1.104  1.57207148
 1.105  1.56215479
 1.105  1.64624808
 1.105  1.58654400
 1.106  1.60747431
 1.107  1.55628706
 1.107  1.50539491
 1.107  1.39309182
 1.108  1.21324374
 1.109  1.19367198
 1.109  1.04314630
 1.109  0.91006990
 1.110  0.67253475
 1.111  0.36588599
 1.111  0.26293682
 1.111  0.15315893
 1.112  0.09311033
 1.113  -0.05130693
 1.113  -0.17634922
 1.113  -0.22891839
 1.114  -0.36496669
 1.115  -0.34148157
 1.115  -0.28473511
 1.115  -0.31536882
 1.116  -0.28806415
 1.117  -0.29521222
 1.117  -0.18319601
 1.117  0.03662430
 1.118  0.08764943
 1.119  0.10073464
 1.119  0.19446819
 1.119  0.44550595
 1.120  0.66937955
 1.121  0.95887775
 1.121  1.15803249
 1.121  1.18690828
 1.122  1.17142438
 1.123  1.35662380
 1.123  1.41777891
 1.123  1.46378686
 1.124  1.54958784
 1.125  1.62078796
 1.125  1.52426451
 1.125  1.63207759
 1.126  1.63831843
 1.127  1.52064706
 1.127  1.44070883
 1.127  1.26909501
 1.128  1.24410906
 1.129  1.21425135
 1.129  1.02261907
 1.129  0.94146672
 1.130  0.73389843
 1.131  0.48342241
 1.131  0.22536028
 1.131  0.15470661
 1.132  0.02675635
 1.133  -0.05448368
 1.133  -0.09906089
 1.133  -0.23229265
 1.134  -0.38967453
 1.135  -0.25563179
 1.135  -0.33944253
 1.135  -0.29336370
 1.136  -0.28109000
 1.137  -0.26375934
 1.137  -0.19526468
 1.137  0.02566274
 1.138  0.02541328
 1.139  0.20127751
 1.139  0.18924024
 1.139  0.35871392
 1.140  0.62223650
 1.141  0.87604777
 1.141  1.03793055
 1.141  1.26680042
 1.142  1.22604897
 1.143  1.23551151
 1.143  1.39504066
 1.143  1.62587257
 1.144  1.55964245
 1.145  1.71346837
 1.145  1.57332560
 1.145  1.56993705
 1.146  1.62749969
 1.147  1.52275071
 1.147  1.41425233
 1.147  1.38118137
 1.148  1.27473160
 1.149  1.13899397
 1.149  1.11934014
 1.149  0.95496782
 1.150  0.62725811
 1.151  0.44819669
 1.151  0.26862976
 1.151  0.10936851
 1.152  0.06888084
 1.153  0.01140074
 1.153  -0.06046091
 1.153  -0.23021612
 1.154  -0.35113612
 1.155  -0.37424465
 1.155  -0.29383099
 1.155  -0.24247050
 1.156  -0.25742116
 1.157  -0.26377025
 1.157  -0.07363879
 1.157  0.05343227
 1.158  0.14820941
 1.159  0.12456050
 1.159  0.13784737
 1.159  0.37999941
 1.160  0.64565536
 1.161  0.98653171
 1.161  1.04633106
 1.161  1.24215975
 1.162  1.24265940
 1.163  1.27260730
 1.163  1.49133160
 1.163  1.64036763
 1.164  1.67869510
 1.165  1.68066705
 1.165  1.57390012
 1.165  1.64401783
 1.166  1.54542508
 1.167  1.54730510
 1.167  1.49330252
 1.167  1.30059887
 1.168  1.25697555
 1.169  1.15964342
 1.169  1.11751140
 1.169  0.92032828
 1.170  0.66423695
 1.171  0.40302980
 1.171  0.21264722
 1.171  0.08448395
 1.172  0.14070770
 1.173  -0.01769303
 1.173  -0.13277910
 1.173  -0.21561586
 1.174  -0.22134089
 1.175  -0.24708766
 1.175  -0.23985264
 1.175  -0.31598013
 1.176  -0.27282965
 1.177  -0.17149189
 1.177  -0.09366572
 1.177  0.03435978
 1.178  0.07237939
 1.179  0.10747411
 1.179  0.15727852
 1.179  0.47974037
 1.180  0.75703039
 1.181  0.92513940
 1.181  1.08726469
 1.181  1.21550696
 1.182  1.26045695
 1.183  1.31904454
 1.183  1.46867680
 1.183  1.58967579
 1.184  1.67641902
 1.185  1.58890164
 1.185  1.62768917
 1.185  1.67387231
 1.186  1.57962578
 1.187  1.58483501
 1.187  1.48355260
 1.188  1.33616828
 1.188  1.25956464
 1.188  1.21822254
 1.189  1.10788019
 1.190  0.81433873
 1.190  0.68569234
 1.190  0.46327493
 1.191  0.24500498
 1.192  0.13012451
 1.192  0.15855518
 1.192  0.03374638
 1.193  -0.08465515
 1.194  -0.34614588
 1.194  -0.30059586
 1.194  -0.26517482
 1.195  -0.21834670
 1.196  -0.33354841
 1.196  -0.27995304
 1.196  -0.16926029
 1.197  -0.07717880
 1.198  -0.02693463
 1.198  0.11103574
 1.198  0.18689980
 1.199  0.15820035
 1.200  0.46709927
 1.200  0.75802565
 1.200  0.95827247
 1.201  1.16525891
 1.202  1.26794601
 1.202  1.33351091
 1.202  1.37619830
 1.203  1.42148686
 1.204  1.61613794
 1.204  1.60252503
 1.204  1.65575128
 1.205  1.71811834
 1.206  1.59065274
 1.206  1.63697301
 1.206  1.64933873
 1.207  1.45123433
 1.208  1.40856527
 1.208  1.24944592
 1.208  1.12659731
 1.209  1.19772369
 1.210  0.96517436
 1.210  0.69421112
 1.210  0.33425878
 1.211  0.27488101
 1.212  0.17166402
 1.212  0.18499192
 1.212  0.03983297
 1.213  -0.06621871
 1.214  -0.30232459
 1.214  -0.25204356
 1.214  -0.20011938
 1.215  -0.27786161
 1.216  -0.31921036
 1.216  -0.29374778
 1.216  -0.24629134
 1.217  -0.11200213
 1.218  0.18328548
 1.218  0.21461060
 1.218  0.11544919
 1.219  0.24318374
 1.220  0.36736724
 1.220  0.73568713
 1.220  0.90040630
 1.221  1.20667998
 1.222  1.26943162
 1.222  1.35338876
 1.222  1.35140406
 1.223  1.52398683
 1.224  1.58732468
 1.224  1.56281179
 1.224  1.64338925
 1.225  1.63562771
 1.226  1.64428743
 1.226  1.66136219
 1.226  1.60648566
 1.227  1.46197824
 1.228  1.35689130
 1.228  1.31468630
 1.228  1.26886756
 1.229  1.20749143
 1.230  0.85500172
 1.230  0.65146227
 1.230  0.43761130
 1.231  0.31149771
 1.232  0.12865164
 1.232  0.07748250
 1.232  0.11380353
 1.233  -0.12612821
 1.234  -0.25103659
 1.234  -0.26976268
 1.234  -0.28049568
 1.235  -0.24424321
 1.236  -0.28002594
 1.236  -0.28662410
 1.236  -0.21228815
 1.237  -0.06025341
 1.238  0.01906299
 1.238  0.12833055
 1.238  0.19659690
 1.239  0.27645184
 1.240  0.42179185
 1.240  0.69279511
 1.240  1.00909052
 1.241  1.07703843
 1.242  1.19297088
 1.242  1.41654598
 1.242  1.38083578
 1.243  1.51342653
 1.244  1.57742259
 1.244  1.58959933
 1.244  1.68559033
 1.245  1.64820127
 1.246  1.68297928
 1.246  1.62168483
 1.246  1.64447622
 1.247  1.46682462
 1.248  1.32231308
 1.248  1.35906431
 1.248  1.23767520
 1.249  1.23871203
 1.250  1.00107793
 1.250  0.69844187
 1.250  0.38621131
 1.251  0.22565037
 1.252  0.30678003
 1.252  0.13236173
 1.252  0.04437366
 1.253  -0.05458368
 1.254  -0.15903862
 1.254  -0.16042301
 1.254  -0.27649395
 1.255  -0.26824332
 1.256  -0.22784081
 1.256  -0.26881247
 1.256  -0.09676499
 1.257  -0.13711368
 1.258  0.09563925
 1.258  0.03725776
 1.258  0.18153860
 1.259  0.26920296
 1.260  0.51180684
 1.260  0.68912439
 1.260  1.04747287
 1.261  1.07772271
 1.262  1.21282345
 1.262  1.23927398
 1.262  1.38232233
 1.263  1.53647776
 1.264  1.54821527
 1.264  1.76265471
 1.264  1.70457082
 1.265  1.68416269
 1.266  1.61560613
 1.266  1.66325061
 1.266  1.59384834
 1.267  1.45361397
 1.268  1.47908194
 1.268  1.24708922
 1.268  1.18477561
 1.269  1.08155823
 1.270  0.99747418
 1.270  0.73452734
 1.270  0.45658021
 1.271  0.30470603
 1.272  0.19914698
 1.272  0.16429780
 1.272  0.08997132
 1.273  -0.13858930
 1.274  -0.07084810
 1.274  -0.26453497
 1.274  -0.19087364
 1.275  -0.19642825
 1.276  -0.34711781
 1.276  -0.25109110
 1.276  -0.19695026
 1.277  -0.12506635
 1.278  0.06165721
 1.278  0.04418001
 1.278  0.15780787
 1.279  0.21346633
 1.280  0.57836518
 1.280  0.65597718
 1.280  1.04036958
 1.281  1.21509066
 1.282  1.33463105
 1.282  1.39362869
 1.282  1.42062695
 1.283  1.49835081
 1.284  1.52433059
 1.284  1.68107787
 1.284  1.76085547
 1.285  1.59582524
 1.286  1.66261683
 1.286  1.69370403
 1.286  1.63165174
 1.287  1.43837688
 1.288  1.37724360
 1.288  1.21107562
 1.288  1.20593001
 1.289  1.24141079
 1.290  0.96889962
 1.290  0.79255801
 1.290  0.49589384
 1.291  0.31444010
 1.292  0.16656313
 1.292  0.18389683
 1.292  0.02219204
 1.293  -0.08180415
 1.294  -0.22639179
 1.294  -0.17496496
 1.294  -0.24134885
 1.295  -0.16034478
 1.296  -0.26326715
 1.296  -0.15980290
 1.296  -0.19070792
 1.297  -0.13777932
 1.298  0.05896663
 1.298  0.19034573
 1.298  0.23809276
 1.299  0.23512997
 1.300  0.55888220
 1.300  0.77905662
 1.300  0.92090599
 1.301  1.17279829
 1.302  1.27819571
 1.302  1.26127144
 1.302  1.42042826
 1.303  1.55251743
 1.304  1.61188814
 1.304  1.68625602
 1.304  1.70901165
 1.305  1.62631323
 1.306  1.73647914
 1.306  1.73387005
 1.306  1.65219083
 1.307  1.47911216
 1.308  1.44746832
 1.308  1.21736263
 1.308  1.25395664
 1.309  1.20461611
 1.310  0.93237349
 1.310  0.82456313
 1.310  0.52480003
 1.311  0.32332501
 1.312  0.26359960
 1.312  0.25448178
 1.313  0.13236633
 1.313  -0.10308172
 1.313  -0.07545121
 1.314  -0.21612770
 1.315  -0.25051850
 1.315  -0.23293007
 1.315  -0.19431523
 1.316  -0.28349160
 1.317  -0.15385562
 1.317  -0.00272321
 1.317  0.07547269
 1.318  0.14413167
 1.319  0.19660242
 1.319  0.29076192
 1.319  0.51789042
 1.320  0.82867370
 1.321  0.99971533
 1.321  1.12637258
 1.321  1.27122290
 1.322  1.34577326
 1.323  1.45794714
 1.323  1.54717399
 1.323  1.70928803
 1.324  1.75252336
 1.325  1.70227083
 1.325  1.65788492
 1.325  1.60634317
 1.326  1.60226126
 1.327  1.57634502
 1.327  1.58276396
 1.327  1.41230168
 1.328  1.27374276
 1.329  1.32425901
 1.329  1.20078265
 1.329  0.92231149
 1.330  0.82370000
 1.331  0.41721271
 1.331  0.26388599
 1.331  0.13343254
 1.332  0.18682036
 1.333  -0.00446520
 1.333  -0.03827510
 1.333  -0.15063683
 1.334  -0.17542454
 1.335  -0.13595273
 1.335  -0.10650852
 1.335  -0.26610278
 1.336  -0.16494511
 1.337  -0.24856546
 1.337  0.02648880
 1.337  0.13180584
 1.338  0.08039819
 1.339  0.20925780
 1.339  0.22674085
 1.339  0.43189824
 1.340  0.75027441
 1.341  1.07046634
 1.341  1.12871607
 1.341  1.28438659
 1.342  1.37882385
 1.343  1.50957223
 1.343  1.60404363
 1.343  1.67352098
 1.344  1.74252334
 1.345  1.69487170
 1.345  1.66493598
 1.345  1.66001321
 1.346  1.72619001
 1.347  1.66733932
 1.347  1.41773574
 1.347  1.42855798
 1.348  1.45339310
 1.349  1.34960469
 1.349  1.19735738
 1.349  0.98724594
 1.350  0.86738949
 1.351  0.49751558
 1.351  0.36948416
 1.351  0.18142449
 1.352  0.13042994
 1.353  0.05557746
 1.353  -0.00457112
 1.353  -0.13370308
 1.354  -0.23190282
 1.355  -0.14881168
 1.355  -0.26866930
 1.355  -0.13996012
 1.356  -0.15777665
 1.357  -0.15419588
 1.357  0.00073100
 1.357  0.08311231
 1.358  0.13514077
 1.359  0.26878097
 1.359  0.27736886
 1.359  0.57270903
 1.360  0.72121010
 1.361  1.07895006
 1.361  1.21130634
 1.361  1.24295540
 1.362  1.34411355
 1.363  1.52483562
 1.363  1.58021424
 1.363  1.67039505
 1.364  1.64389368
 1.365  1.75106892
 1.365  1.69511654
 1.365  1.69394188
 1.366  1.69864582
 1.367  1.63112781
 1.367  1.61409096
 1.367  1.40030463
 1.368  1.35096621
 1.369  1.25030819
 1.369  1.29966347
 1.369  1.07497538
 1.370  0.80095105
 1.371  0.57657595
 1.371  0.23958409
 1.371  0.25215408
 1.372  0.22747761
 1.373  0.06661394
 1.373  -0.01954389
 1.373  -0.14294419
 1.374  -0.09456859
 1.375  -0.23263331
 1.375  -0.10951089
 1.375  -0.28462268
 1.376  -0.18888667
 1.377  -0.22224545
 1.377  -0.06526752
 1.377  0.07711264
 1.378  0.25820058
 1.379  0.28100201
 1.379  0.26240161
 1.379  0.43053859
 1.380  0.67516605
 1.381  0.99986489
 1.381  1.17522201
 1.381  1.32663768
 1.382  1.40520576
 1.383  1.49339718
 1.383  1.56219133
 1.383  1.71297069
 1.384  1.71366363
 1.385  1.72338135
 1.385  1.67918664
 1.385  1.71541055
 1.386  1.75898209
 1.387  1.62162566
 1.387  1.55571829
 1.387  1.44806038
 1.388  1.31912089
 1.389  1.24470268
 1.389  1.18123549
 1.389  0.97854292
 1.390  0.77174799
 1.391  0.46166985
 1.391  0.23918702
 1.391  0.23396727
 1.392  0.13381584
 1.393  0.10600966
 1.393  -0.08979968
 1.393  -0.13586211
 1.394  -0.13205272
 1.395  -0.16106630
 1.395  -0.18087670
 1.395  -0.25734458
 1.396  -0.20391003
 1.397  -0.19325286
 1.397  0.00136790
 1.397  0.09805641
 1.398  0.14089670
 1.399  0.22177776
 1.399  0.35941166
 1.399  0.50534507
 1.400  0.79948635
 1.401  1.05175716
 1.401  1.21356622
 1.401  1.29383341
 1.402  1.30069929
 1.403  1.45361161
 1.403  1.55457629
 1.403  1.56156994
 1.404  1.68989321
 1.405  1.69606181
 1.405  1.70809972
 1.405  1.72917809
 1.406  1.76552782
 1.407  1.65578644
 1.407  1.69717969
 1.407  1.42491813
 1.408  1.32699823
 1.409  1.34285044
 1.409  1.16804221
 1.409  0.95311699
 1.410  0.73659136
 1.411  0.61528388
 1.411  0.33238232
 1.411  0.27507280
 1.412  0.25733199
 1.413  0.12522256
 1.413  0.00773968
 1.413  -0.12878795
 1.414  -0.16384874
 1.415  -0.21673267
 1.415  -0.12951746
 1.415  -0.18780821
 1.416  -0.11669675
 1.417  -0.09448530
 1.417  -0.03069711
 1.417  0.08666145
 1.418  0.25672640
 1.419  0.27026433
 1.419  0.24537919
 1.419  0.41670030
 1.420  0.83436956
 1.421  1.04060359
 1.421  1.28480753
 1.421  1.34461160
 1.422  1.32283128
 1.423  1.39473480
 1.423  1.50973958
 1.423  1.62115524
 1.424  1.66906053
 1.425  1.65178733
 1.425  1.70528285
 1.425  1.73132467
 1.426  1.78372366
 1.427  1.62572453
 1.427  1.54651936
 1.427  1.43434790
 1.428  1.39033848
 1.429  1.29351509
 1.429  1.27181694
 1.429  1.04679188
 1.430  0.80284450
 1.431  0.51888813
 1.431  0.34403183
 1.431  0.25370786
 1.432  0.25261554
 1.433  0.08042114
 1.433  0.03254390
 1.433  -0.16990425
 1.434  -0.15491507
 1.435  -0.20468869
 1.435  -0.14744249
 1.435  -0.19061623
 1.436  -0.17225390
 1.437  -0.22299449
 1.437  0.00123691
 1.438  0.15666821
 1.438  0.20645604
 1.438  0.24058157
 1.439  0.42231667
 1.440  0.60830101
 1.440  0.71693078
 1.440  1.00839683
 1.441  1.17546291
 1.442  1.36643447
 1.442  1.31407077
 1.442  1.54319873
 1.443  1.58814456
 1.444  1.74730498
 1.444  1.81211239
 1.444  1.81532670
 1.445  1.74068402
 1.446  1.70200469
 1.446  1.64453896
 1.446  1.65586082
 1.447  1.64727723
 1.448  1.46556766
 1.448  1.30613249
 1.448  1.25496091
 1.449  1.13980240
 1.450  1.07640571
 1.450  0.81389612
 1.450  0.47128650
 1.451  0.27635973
 1.452  0.30449713
 1.452  0.23621863
 1.452  0.11693936
 1.453  -0.03774472
 1.454  -0.05781653
 1.454  -0.16350333
 1.454  -0.08183185
 1.455  -0.09093625
 1.456  -0.07092187
 1.456  -0.03034483
 1.456  -0.17649588
 1.457  -0.02715162
 1.458  0.20325094
 1.458  0.23849636
 1.458  0.18343469
 1.459  0.35636988
 1.460  0.51516512
 1.460  0.80709530
 1.460  1.00980584
 1.461  1.24840538
 1.462  1.26030004
 1.462  1.41988362
 1.462  1.52678567
 1.463  1.59249072
 1.464  1.65307555
 1.464  1.61033140
 1.464  1.75477930
 1.465  1.70497759
 1.466  1.78228554
 1.466  1.72424054
 1.466  1.60339991
 1.467  1.61494735
 1.468  1.48046702
 1.468  1.36732178
 1.468  1.30842012
 1.469  1.24757697
 1.470  1.13718013
 1.470  0.92007910
 1.470  0.61254726
 1.471  0.25656116
 1.472  0.24072312
 1.472  0.19693619
 1.472  0.13122951
 1.473  0.09150683
 1.474  -0.12097440
 1.474  -0.22489156
 1.474  -0.18867381
 1.475  -0.15694912
 1.476  -0.18939401
 1.476  -0.21844803
 1.476  -0.12558935
 1.477  -0.07925495
 1.478  0.03432857
 1.478  0.17454393
 1.478  0.23668015
 1.479  0.28464073
 1.480  0.55816959
 1.480  0.78920068
 1.480  1.04630417
 1.481  1.21211105
 1.482  1.28089908
 1.482  1.44465952
 1.482  1.43205786
 1.483  1.50463424
 1.484  1.66537474
 1.484  1.70008396
 1.484  1.80638412
 1.485  1.65206763
 1.486  1.75217873
 1.486  1.73537970
 1.486  1.76520261
 1.487  1.55606408
 1.488  1.53685037
 1.488  1.39884573
 1.488  1.29495031
 1.489  1.28925928
 1.490  1.05620176
 1.490  0.80712887
 1.490  0.57095949
 1.491  0.31537368
 1.492  0.17815617
 1.492  0.18253552
 1.492  0.07661458
 1.493  -0.05569716
 1.494  -0.13152511
 1.494  -0.06915174
 1.494  -0.22656340
 1.495  -0.21352929
 1.496  -0.20472121
 1.496  -0.15831417
 1.496  -0.12201608
 1.497  0.02482057
 1.498  0.13105436
 1.498  0.20113880
 1.498  0.37491920
 1.499  0.42876870
 1.500  0.45844591
 1.500  0.76031598
 1.500  1.08572933
 1.501  1.14926177
 1.502  1.37432234
 1.502  1.38027332
 1.502  1.44983370
 1.503  1.59576555
 1.504  1.71061881
 1.504  1.86878707
 1.504  1.68967186
 1.505  1.81220369
 1.506  1.74733129
 1.506  1.76000993
 1.506  1.71335249
 1.507  1.63778746
 1.508  1.50047293
 1.508  1.45041131
 1.508  1.36949049
 1.509  1.29929453
 1.510  1.05377066
 1.510  0.78324635
 1.510  0.56987794
 1.511  0.41680930
 1.512  0.26688927
 1.512  0.23256181
 1.512  0.21724117
 1.513  0.06139258
 1.514  -0.12366103
 1.514  -0.14522152
 1.514  -0.10647145
 1.515  -0.20276135
 1.516  -0.13669881
 1.516  -0.09295899
 1.516  -0.15984108
 1.517  -0.05226585
 1.518  0.18075839
 1.518  0.24176016
 1.518  0.14047308
 1.519  0.33442888
 1.520  0.52877062
 1.520  0.77998752
 1.520  1.19874402
 1.521  1.25450363
 1.522  1.33562769
 1.522  1.44437634
 1.522  1.48790275
 1.523  1.53487004
 1.524  1.72008516
 1.524  1.76507540
 1.524  1.88060763
 1.525  1.74948732
 1.526  1.81609233
 1.526  1.80084046
 1.526  1.71728097
 1.527  1.64527559
 1.528  1.53343132
 1.528  1.40924779
 1.528  1.36669839
 1.529  1.24250302
 1.530  1.12999101
 1.530  0.80340196
 1.530  0.57777960
 1.531  0.33622326
 1.532  0.23652022
 1.532  0.16512596
 1.532  0.10900223
 1.533  0.08811964
 1.534  -0.17094026
 1.534  -0.21440015
 1.534  -0.04016350
 1.535  -0.09138053
 1.536  -0.14789371
 1.536  -0.18845138
 1.536  -0.00214743
 1.537  -0.03544995
 1.538  0.01189743
 1.538  0.15980939
 1.538  0.31942292
 1.539  0.38883150
 1.540  0.59088322
 1.540  0.83364803
 1.540  1.18555773
 1.541  1.17083790
 1.542  1.37707565
 1.542  1.39136637
 1.542  1.46172137
 1.543  1.63663334
 1.544  1.74766119
 1.544  1.77382162
 1.544  1.80273917
 1.545  1.83466771
 1.546  1.70860534
 1.546  1.81079902
 1.546  1.78281890
 1.547  1.57855947
 1.548  1.43020740
 1.548  1.36186716
 1.548  1.36099915
 1.549  1.28241785
 1.550  1.03722003
 1.550  0.76678152
 1.550  0.60228335
 1.551  0.32891296
 1.552  0.29812403
 1.552  0.22884948
 1.552  0.11533670
 1.553  0.00990526
 1.554  -0.10924613
 1.554  -0.14776930
 1.554  -0.17592602
 1.555  -0.13779893
 1.556  -0.05277120
 1.556  -0.09148079
 1.556  -0.10849878
 1.557  -0.01763118
 1.558  0.14737790
 1.558  0.27591782
 1.558  0.24885629
 1.559  0.28917558
 1.560  0.55759214
 1.560  0.74722783
 1.560  1.11554988
 1.561  1.21162699
 1.562  1.41342282
 1.562  1.50637934
 1.563  1.40826418
 1.563  1.65248207
 1.563  1.64082734
 1.564  1.77857425
 1.565  1.87047180
 1.565  1.84892670
 1.565  1.75367519
 1.566  1.82845748
 1.567  1.66685161
 1.567  1.50073096
 1.567  1.55732324
 1.568  1.43012468
 1.569  1.43442464
 1.569  1.26106256
 1.569  1.12836192
 1.570  0.78335469
 1.571  0.56944911
 1.571  0.41142195
 1.571  0.43783525
 1.572  0.21050932
 1.573  0.21706575
 1.573  -0.00338981
 1.573  -0.08383150
 1.574  -0.23413907
 1.575  -0.08476739
 1.575  -0.20926196
 1.575  -0.13272140
 1.576  -0.12431289
 1.577  0.00341226
 1.577  0.07664604
 1.577  0.22006765
 1.578  0.22561459
 1.579  0.29391332
 1.579  0.44981808
 1.579  0.56513279
 1.580  0.83833108
 1.581  1.03687742
 1.581  1.25480651
 1.581  1.34329454
 1.582  1.47355454
 1.583  1.60385411
 1.583  1.67893726
 1.583  1.71443853
 1.584  1.82953468
 1.585  1.70564419
 1.585  1.75436098
 1.585  1.79108011
 1.586  1.81691747
 1.587  1.71094399
 1.587  1.71388961
 1.587  1.53374314
 1.588  1.45419442
 1.589  1.41968173
 1.589  1.25383413
 1.589  1.03008756
 1.590  0.78353810
 1.591  0.58253120
 1.591  0.34658751
 1.591  0.28820099
 1.592  0.13144029
 1.593  0.12219188
 1.593  0.07861945
 1.593  -0.00110580
 1.594  -0.10347598
 1.595  -0.12338660
 1.595  -0.13224488
 1.595  -0.05847615
 1.596  -0.10873192
 1.597  -0.01211478
 1.597  0.05576766
 1.597  0.15404643
 1.598  0.22667157
 1.599  0.32199758
 1.599  0.35715808
 1.599  0.61239045
 1.600  0.85671733
 1.601  1.17148641
 1.601  1.18851571
 1.601  1.45798589
 1.602  1.47616629
 1.603  1.49839669
 1.603  1.63676904
 1.603  1.74743909
 1.604  1.85697154
 1.605  1.86163627
 1.605  1.83598953
 1.605  1.87592695
 1.606  1.81579885
 1.607  1.68731911
 1.607  1.66023058
 1.607  1.42544123
 1.608  1.42443523
 1.609  1.38704715
 1.609  1.30757448
 1.609  1.10401097
 1.610  0.88825765
 1.611  0.60307640
 1.611  0.38848507
 1.611  0.30087859
 1.612  0.30432487
 1.613  0.15670353
 1.613  0.15944794
 1.613  -0.12021024
 1.614  -0.16540189
 1.615  -0.07622899
 1.615  -0.13292818
 1.615  -0.09914557
 1.616  -0.04945251
 1.617  -0.05539542
 1.617  0.08891502
 1.617  0.16704556
 1.618  0.30144561
 1.619  0.24348099
 1.619  0.41050705
 1.619  0.56958551
 1.620  0.78440763
 1.621  0.99490736
 1.621  1.26021148
 1.621  1.40373623
 1.622  1.44496720
 1.623  1.58169299
 1.623  1.63045443
 1.623  1.81175513
 1.624  1.80937408
 1.625  1.74804648
 1.625  1.72722224
 1.625  1.85052656
 1.626  1.81996896
 1.627  1.77348817
 1.627  1.56110271
 1.627  1.50712858
 1.628  1.48493460
 1.629  1.35866094
 1.629  1.29729722
 1.629  1.14084493
 1.630  0.86535023
 1.631  0.58851505
 1.631  0.42348605
 1.631  0.30430216
 1.632  0.24524064
 1.633  0.08333565
 1.633  0.04971035
 1.633  -0.02483117
 1.634  -0.07944566
 1.635  -0.06164783
 1.635  -0.15318098
 1.635  -0.07563898
 1.636  -0.08652141
 1.637  0.02563774
 1.637  0.13840820
 1.637  0.14792783
 1.638  0.34536701
 1.639  0.28231619
 1.639  0.47528163
 1.639  0.53559381
 1.640  0.76313651
 1.641  1.09006983
 1.641  1.31614920
 1.641  1.38840491
 1.642  1.41645826
 1.643  1.59208488
 1.643  1.64301642
 1.643  1.68267715
 1.644  1.80650538
 1.645  1.88161347
 1.645  1.82252628
 1.645  1.80418459
 1.646  1.76186456
 1.647  1.71673484
 1.647  1.66042481
 1.647  1.62011140
 1.648  1.36290392
 1.649  1.30855795
 1.649  1.27901460
 1.649  1.01508947
 1.650  0.82466027
 1.651  0.62689668
 1.651  0.53220721
 1.651  0.25658713
 1.652  0.24312943
 1.653  0.15368139
 1.653  0.09731113
 1.653  0.04768303
 1.654  -0.06311889
 1.655  -0.10455513
 1.655  -0.03860812
 1.655  -0.05002547
 1.656  -0.10410452
 1.657  0.02874311
 1.657  0.09584460
 1.657  0.21729492
 1.658  0.21330351
 1.659  0.32305262
 1.659  0.42822998
 1.659  0.58399060
 1.660  0.82318663
 1.661  1.15780292
 1.661  1.38856328
 1.661  1.44451639
 1.662  1.43816629
 1.663  1.59818067
 1.663  1.61834348
 1.663  1.79965022
 1.664  1.79910854
 1.665  1.82240131
 1.665  1.73952251
 1.665  1.81380562
 1.666  1.85134963
 1.667  1.69926126
 1.667  1.68225985
 1.667  1.53793460
 1.668  1.40021826
 1.669  1.42919837
 1.669  1.27606752
 1.669  1.08992706
 1.670  0.82622217
 1.671  0.65177108
 1.671  0.47767718
 1.671  0.41587953
 1.672  0.27219487
 1.673  0.19930598
 1.673  0.12964869
 1.673  -0.05477667
 1.674  -0.12453074
 1.675  -0.06266989
 1.675  -0.05465939
 1.675  0.00632365
 1.676  -0.10711834
 1.677  0.01159686
 1.677  0.12293607
 1.677  0.28519875
 1.678  0.30759565
 1.679  0.33769041
 1.679  0.51412929
 1.679  0.62744680
 1.680  0.83732369
 1.681  1.17731565
 1.681  1.22277009
 1.681  1.38330469
 1.682  1.39926681
 1.683  1.53307933
 1.683  1.68104671
 1.683  1.73240371
 1.684  1.80452326
 1.685  1.92264034
 1.685  1.84468329
 1.685  1.79655800
 1.686  1.79160188
 1.687  1.76193977
 1.687  1.72991047
 1.688  1.54223037
 1.688  1.45446929
 1.688  1.37277688
 1.689  1.31901736
 1.690  1.05327014
 1.690  0.91700492
 1.690  0.60978146
 1.691  0.41613620
 1.692  0.28964309
 1.692  0.32529806
 1.692  0.25485843
 1.693  0.04204390
 1.694  -0.00619502
 1.694  -0.09221362
 1.694  -0.12379592
 1.695  -0.05787880
 1.696  -0.05173451
 1.696  -0.06308612
 1.696  -0.15938746
 1.697  0.09812308
 1.698  0.17820769
 1.698  0.35163565
 1.698  0.35029613
 1.699  0.43174313
 1.700  0.61882534
 1.700  0.79922643
 1.700  1.11426342
 1.701  1.27773359
 1.702  1.46611058
 1.702  1.51183246
 1.702  1.50321272
 1.703  1.63159844
 1.704  1.77258685
 1.704  1.89395940
 1.704  1.77136024
 1.705  1.92286906
 1.706  1.78672655
 1.706  1.80412014
 1.706  1.80986923
 1.707  1.59274544
 1.708  1.46301445
 1.708  1.51606273
 1.708  1.46637168
 1.709  1.37828703
 1.710  1.00927005
 1.710  0.90489803
 1.710  0.55654050
 1.711  0.43877740
 1.712  0.25649462
 1.712  0.23548553
 1.712  0.26768474
 1.713  0.06970623
 1.714  0.03823720
 1.714  -0.11198097
 1.714  -0.17857778
 1.715  -0.17896780
 1.716  -0.01523010
 1.716  -0.02021095
 1.716  -0.03658932
 1.717  0.10749972
 1.718  0.17784492
 1.718  0.22924988
 1.718  0.39861059
 1.719  0.35255698
 1.720  0.58658912
 1.720  0.86992484
 1.720  1.15085443
 1.721  1.24151866
 1.722  1.51112847
 1.722  1.46807371
 1.722  1.53537421
 1.723  1.58609661
 1.724  1.69312828
 1.724  1.83509398
 1.724  1.83586831
 1.725  1.86569703
 1.726  1.79078311
 1.726  1.76924325
 1.726  1.73662456
 1.727  1.67831306
 1.728  1.50022031
 1.728  1.42480361
 1.728  1.35756851
 1.729  1.34799220
 1.730  1.10832928
 1.730  0.86563460
 1.730  0.63190637
 1.731  0.60200844
 1.732  0.33190794
 1.732  0.34623297
 1.732  0.29618869
 1.733  0.04327691
 1.734  0.00039628
 1.734  -0.04795203
 1.734  -0.01825794
 1.735  -0.07230623
 1.736  0.01875587
 1.736  -0.12026261
 1.736  -0.01052320
 1.737  0.05452430
 1.738  0.24547805
 1.738  0.34781220
 1.738  0.33127850
 1.739  0.45895239
 1.740  0.61510721
 1.740  0.85132465
 1.740  1.18801719
 1.741  1.31131718
 1.742  1.52430960
 1.742  1.54268537
 1.742  1.50801261
 1.743  1.71197877
 1.744  1.72756446
 1.744  1.89553509
 1.744  1.77036411
 1.745  1.82849191
 1.746  1.89383754
 1.746  1.81460166
 1.746  1.77680267
 1.747  1.67743301
 1.748  1.64752755
 1.748  1.46918190
 1.748  1.41655956
 1.749  1.26855168
 1.750  1.17556142
 1.750  0.94456554
 1.750  0.68203334
 1.751  0.53045323
 1.752  0.36348290
 1.752  0.28690373
 1.752  0.24933528
 1.753  0.24940281
 1.754  -0.00511981
 1.754  -0.02994639
 1.754  -0.05886519
 1.755  0.00362459
 1.756  -0.01147819
 1.756  -0.08354228
 1.756  0.03778295
 1.757  0.11300931
 1.758  0.24652204
 1.758  0.31111253
 1.758  0.29176518
 1.759  0.53344220
 1.760  0.62841988
 1.760  0.83986177
 1.760  1.00070004
 1.761  1.28738609
 1.762  1.33547250
 1.762  1.50495643
 1.762  1.57645265
 1.763  1.69244406
 1.764  1.72972662
 1.764  1.85740029
 1.764  1.91958929
 1.765  1.80355575
 1.766  1.88815746
 1.766  1.79380780
 1.766  1.79355896
 1.767  1.70193395
 1.768  1.47349689
 1.768  1.58616983
 1.768  1.46332839
 1.769  1.31816131
 1.770  1.25484956
 1.770  0.93635411
 1.770  0.65183077
 1.771  0.45666514
 1.772  0.38618217
 1.772  0.20562273
 1.772  0.18302580
 1.773  0.15466219
 1.774  -0.07163114
 1.774  -0.08663446
 1.774  -0.02540061
 1.775  -0.10024019
 1.776  -0.05190937
 1.776  -0.01461189
 1.776  0.09575971
 1.777  0.07731936
 1.778  0.31529905
 1.778  0.33045353
 1.778  0.37055146
 1.779  0.38838360
 1.780  0.61077563
 1.780  0.90343018
 1.780  1.15822757
 1.781  1.26868998
 1.782  1.41725349
 1.782  1.53446496
 1.782  1.54241348
 1.783  1.66748353
 1.784  1.81108236
 1.784  1.92148109
 1.784  1.81381328
 1.785  1.78322826
 1.786  1.77938644
 1.786  1.83875635
 1.786  1.77486774
 1.787  1.79937155
 1.788  1.43995049
 1.788  1.52148836
 1.788  1.42828001
 1.789  1.40527955
 1.790  1.20628617
 1.790  0.88300081
 1.790  0.77402245
 1.791  0.51391401
 1.792  0.40926657
 1.792  0.30329781
 1.792  0.13378695
 1.793  0.08307798
 1.794  -0.10698636
 1.794  0.01182210
 1.794  -0.07118315
 1.795  -0.09941957
 1.796  -0.07786625
 1.796  -0.11165205
 1.796  -0.09695650
 1.797  0.02057569
 1.798  0.18701248
 1.798  0.27535083
 1.798  0.38363941
 1.799  0.46109816
 1.800  0.72869360
 1.800  0.89618414
 1.800  1.06080761
 1.801  1.30294837
 1.802  1.41441317
 1.802  1.52617169
 1.802  1.49327875
 1.803  1.66070934
 1.804  1.75075898
 1.804  1.90048754
 1.804  1.91762077
 1.805  1.92151686
 1.806  1.88007243
 1.806  1.86992249
 1.806  1.78402851
 1.807  1.70318471
 1.808  1.52844010
 1.808  1.48951724
 1.808  1.39789906
 1.809  1.43241965
 1.810  1.28181743
 1.810  0.89363276
 1.810  0.62820156
 1.811  0.47208032
 1.812  0.41598515
 1.812  0.36909882
 1.813  0.19189508
 1.813  0.08089047
 1.813  -0.05879336
 1.814  -0.04295613
 1.815  -0.09592213
 1.815  -0.05322737
 1.815  -0.05532621
 1.816  0.06725718
 1.817  0.07367482
 1.817  0.07328800
 1.817  0.25797447
 1.818  0.37371630
 1.819  0.36108291
 1.819  0.45748647
 1.819  0.62739014
 1.820  0.96795381
 1.821  1.19179128
 1.821  1.38018149
 1.821  1.50194040
 1.822  1.46726335
 1.823  1.58851081
 1.823  1.57617927
 1.823  1.87501701
 1.824  1.89924896
 1.825  1.92100912
 1.825  1.85891561
 1.825  1.92502809
 1.826  1.80717881
 1.827  1.77357544
 1.827  1.66923441
 1.827  1.51965845
 1.828  1.48770002
 1.829  1.48199312
 1.829  1.34196877
 1.829  1.24950127
 1.830  0.95088935
 1.831  0.66629334
 1.831  0.47678700
 1.831  0.34126703
 1.832  0.42128408
 1.833  0.22063144
 1.833  0.10619588
 1.833  0.02869880
 1.834  0.00609892
 1.835  -0.05075385
 1.835  -0.09655533
 1.835  0.00741730
 1.836  0.01216956
 1.837  0.02608897
 1.837  0.10302992
 1.837  0.24870934
 1.838  0.30288438
 1.839  0.42448654
 1.839  0.46597528
 1.839  0.65245916
 1.840  0.92819302
 1.841  1.15590062
 1.841  1.29998872
 1.841  1.49518493
 1.842  1.47415385
 1.843  1.72392912
 1.843  1.68752934
 1.843  1.88137760
 1.844  1.87364885
 1.845  1.94349129
 1.845  1.88878808
 1.845  1.83736004
 1.846  1.82488810
 1.847  1.78477195
 1.847  1.77593403
 1.847  1.63731824
 1.848  1.51606090
 1.849  1.43746413
 1.849  1.26053361
 1.849  1.24517383
 1.850  0.86370004
 1.851  0.65574363
 1.851  0.49781592
 1.851  0.34244932
 1.852  0.28606049
 1.853  0.21850021
 1.853  0.10420834
 1.853  0.03450209
 1.854  0.01342160
 1.855  -0.09100369
 1.855  -0.11123320
 1.855  -0.00570445
 1.856  -0.06221878
 1.857  0.07099267
 1.857  0.14916708
 1.857  0.17854635
 1.858  0.40087978
 1.859  0.38752678
 1.859  0.41237749
 1.859  0.67404635
 1.860  0.95030658
 1.861  1.24779069
 1.861  1.39652421
 1.861  1.42788535
 1.862  1.48990364
 1.863  1.47675799
 1.863  1.70324572
 1.863  1.79143758
 1.864  1.92465578
 1.865  1.83692039
 1.865  1.82896423
 1.865  1.86870997
 1.866  1.82539094
 1.867  1.78363042
 1.867  1.71154962
 1.867  1.61432784
 1.868  1.57651181
 1.869  1.43446735
 1.869  1.37836921
 1.869  1.05633027
 1.870  0.84341690
 1.871  0.65256616
 1.871  0.52689809
 1.871  0.44848384
 1.872  0.36224162
 1.873  0.19730505
 1.873  0.17670177
 1.873  -0.04807793
 1.874  0.01659263
 1.875  -0.03324279
 1.875  -0.08363493
 1.875  0.03194481
 1.876  -0.01614365
 1.877  0.13667076
 1.877  0.05656768
 1.877  0.28241154
 1.878  0.35684760
 1.879  0.43779041
 1.879  0.46515460
 1.879  0.68673634
 1.880  0.84742543
 1.881  1.19080407
 1.881  1.30241684
 1.881  1.42881777
 1.882  1.48593123
 1.883  1.55670539
 1.883  1.67698591
 1.883  1.86657023
 1.884  1.86575377
 1.885  1.89620861
 1.885  1.91755158
 1.885  1.89044723
 1.886  1.87937052
 1.887  1.83880518
 1.887  1.72139788
 1.887  1.52139867
 1.888  1.58144622
 1.889  1.47939994
 1.889  1.45847309
 1.889  1.22238619
 1.890  0.84216526
 1.891  0.71212734
 1.891  0.51434937
 1.891  0.41970913
 1.892  0.26842454
 1.893  0.20349664
 1.893  0.19163229
 1.893  0.02721670
 1.894  -0.04866459
 1.895  -0.05447125
 1.895  -0.11679718
 1.895  0.03758477
 1.896  0.02710960
 1.897  0.00898387
 1.897  0.26488761
 1.897  0.23028163
 1.898  0.25037267
 1.899  0.29566994
 1.899  0.40953895
 1.899  0.57587272
 1.900  0.90037923
 1.901  1.19143722
 1.901  1.42598886
 1.901  1.47040353
 1.902  1.51369479
 1.903  1.61613117
 1.903  1.76865497
 1.903  1.80586797
 1.904  1.95080212
 1.905  1.92419617
 1.905  1.80588730
 1.905  1.91310094
 1.906  1.85482068
 1.907  1.82965914
 1.907  1.66802034
 1.907  1.62997291
 1.908  1.65089799
 1.909  1.52505538
 1.909  1.38306579
 1.909  1.25262633
 1.910  0.94755610
 1.911  0.70153240
 1.911  0.45752412
 1.911  0.38572035
 1.912  0.34896070
 1.913  0.28478994
 1.913  0.16481119
 1.913  0.00709627
 1.914  0.04103396
 1.915  0.04923726
 1.915  0.04619038
 1.915  0.01927739
 1.916  0.02595741
 1.917  0.05826448
 1.917  0.09809313
 1.917  0.29000460
 1.918  0.29942650
 1.919  0.46451318
 1.919  0.58121089
 1.919  0.59133482
 1.920  0.95017269
 1.921  1.13524894
 1.921  1.41985562
 1.921  1.44763954
 1.922  1.42103406
 1.923  1.56001391
 1.923  1.75249679
 1.923  1.82462472
 1.924  1.91871453
 1.925  1.92626390
 1.925  1.87479266
 1.925  1.99251097
 1.926  1.85572338
 1.927  1.81337477
 1.927  1.66793318
 1.927  1.63044415
 1.928  1.50871431
 1.929  1.49095664
 1.929  1.25892436
 1.929  1.20714387
 1.930  0.97631148
 1.931  0.66475281
 1.931  0.54708079
 1.931  0.37908413
 1.932  0.22484860
 1.933  0.24797990
 1.933  0.13120357
 1.933  0.01373916
 1.934  0.08236014
 1.935  -0.02485016
 1.935  -0.12022822
 1.935  -0.00624275
 1.936  -0.01656930
 1.937  0.14021666
 1.937  0.12175304
 1.938  0.33100137
 1.938  0.36117907
 1.938  0.42476508
 1.939  0.56792935
 1.940  0.69076007
 1.940  0.96091225
 1.940  1.20570095
 1.941  1.38979213
 1.942  1.53377229
 1.942  1.47445151
 1.942  1.55332898
 1.943  1.68441927
 1.944  1.97962872
 1.944  1.88623933
 1.944  1.89525048
 1.945  1.80915790
 1.946  1.94160249
 1.946  1.87066080
 1.946  1.81977548
 1.947  1.72354478
 1.948  1.62069076
 1.948  1.52370127
 1.948  1.49774443
 1.949  1.31990759
 1.950  1.19342683
 1.950  0.92426064
 1.950  0.77493289
 1.951  0.51868288
 1.952  0.38915147
 1.952  0.37097197
 1.952  0.23290428
 1.953  0.19378770
 1.954  0.08499756
 1.954  0.03553700
 1.954  -0.04228114
 1.955  -0.02621614
 1.956  0.02094195
 1.956  -0.01891041
 1.956  0.02433792
 1.957  0.07984274
 1.958  0.32496698
 1.958  0.37079286
 1.958  0.40099953
 1.959  0.56128549
 1.960  0.71119850
 1.960  0.92345407
 1.960  1.12213443
 1.961  1.43557070
 1.962  1.53648864
 1.962  1.53918959
 1.962  1.67215221
 1.963  1.74449106
 1.964  1.85610577
 1.964  1.90122101
 1.964  1.87530679
 1.965  1.88838240
 1.966  1.93282609
 1.966  1.80654725
 1.966  1.82083373
 1.967  1.81539171
 1.968  1.63827521
 1.968  1.61724345
 1.968  1.39032445
 1.969  1.31437895
 1.970  1.20359429
 1.970  0.94792762
 1.970  0.75463644
 1.971  0.57290763
 1.972  0.38206322
 1.972  0.38845085
 1.972  0.32001788
 1.973  0.19743597
 1.974  0.05152042
 1.974  0.05818011
 1.974  -0.04799660
 1.975  0.02661660
 1.976  0.09318575
 1.976  -0.04387902
 1.976  0.01994949
 1.977  0.17303294
 1.978  0.27741735
 1.978  0.36120654
 1.978  0.40221264
 1.979  0.52656020
 1.980  0.63943058
 1.980  0.94059792
 1.980  1.20534384
 1.981  1.33122558
 1.982  1.43959895
 1.982  1.58403763
 1.982  1.74445130
 1.983  1.72731873
 1.984  1.88477563
 1.984  1.92091292
 1.984  1.82293399
 1.985  1.91995514
 1.986  1.88933632
 1.986  1.95683038
 1.986  1.80611306
 1.987  1.81096188
 1.988  1.68580402
 1.988  1.59933778
 1.988  1.45921356
 1.989  1.44494924
 1.990  1.21542291
 1.990  1.01362442
 1.990  0.67511246
 1.991  0.57937421
 1.992  0.42411215
 1.992  0.42357667
 1.992  0.19011695
 1.993  0.12862801
 1.994  0.02801001
 1.994  -0.00360626
 1.994  -0.05138607
 1.995  -0.02991687
 1.996  0.09315856
 1.996  0.01124834
 1.996  0.06070650
 1.997  0.11403896
 1.998  0.29573239
 1.998  0.28675002
 1.998  0.37840073
 1.999  0.47633623
 2.000  0.66085876
 2.000  0.94167036
 2.001  1.19552688
 2.001  1.36643325
 2.002  1.47365698
 2.002  1.45976354
 2.002  1.66551168
 2.003  1.76206507
 2.003  1.82566039
 2.004  1.94216170
 2.005  1.99937622
 2.005  1.83180545
 2.006  1.89981347
 2.006  1.91068475
 2.006  1.90368637
 2.007  1.72408805
 2.007  1.68975996
 2.008  1.58509613
 2.009  1.47148062
 2.009  1.35254963
 2.010  1.20601827
 2.010  0.93501234
 2.010  0.71755257
 2.011  0.48845833
 2.011  0.38889600
 2.012  0.44766936
 2.013  0.36948444
 2.013  0.25876291
 2.014  0.07703116
 2.014  0.01005258
 2.014  -0.00028882
 2.015  -0.05508152
 2.015  -0.04824954
 2.016  -0.02068036
 2.017  0.09649173
 2.017  0.14691876
 2.018  0.30571774
 2.018  0.37188153
 2.018  0.40210327
 2.019  0.56307486
 2.019  0.75146488
 2.020  0.95624528
 2.021  1.17894649
 2.021  1.39612371
 2.022  1.44838929
 2.022  1.41626670
 2.022  1.56189253
 2.023  1.62153129
 2.023  1.89844266
 2.024  1.86093809
 2.025  1.85995088
 2.025  1.79732237
 2.026  1.89267044
 2.026  1.89371961
 2.026  1.92537513
 2.027  1.73622470
 2.027  1.64298705
 2.028  1.44354140
 2.029  1.52657975
 2.029  1.35680849
 2.030  1.23020352
 2.030  0.96302869
 2.030  0.74354607
 2.031  0.50522441
 2.031  0.44620610
 2.032  0.28106646
 2.033  0.30982672
 2.033  0.12949747
 2.034  0.17238705
 2.034  0.04153601
 2.034  -0.00401985
 2.035  -0.02514368
 2.035  -0.05375691
 2.036  -0.05146354
 2.037  0.06315763
 2.037  0.18994413
 2.038  0.19898929
 2.038  0.30932757
 2.038  0.48021863
 2.039  0.63099592
 2.039  0.65483422
 2.040  0.99367735
 2.041  1.19575929
 2.041  1.37097302
 2.042  1.52123510
 2.042  1.53120245
 2.042  1.67977627
 2.043  1.67715956
 2.043  1.93757933
 2.044  1.92519710
 2.045  1.87838293
 2.045  1.95536238
 2.046  1.90474208
 2.046  1.86076019
 2.046  1.81218197
 2.047  1.84090265
 2.047  1.61855856
 2.048  1.48409881
 2.049  1.50710737
 2.049  1.29673278
 2.050  1.20556524
 2.050  0.88380401
 2.050  0.57719902
 2.051  0.54374998
 2.051  0.44415652
 2.052  0.38170734
 2.053  0.27088698
 2.053  0.12978893
 2.054  0.06006766
 2.054  0.08928772
 2.054  0.04805017
 2.055  0.00721965
 2.055  -0.03244174
 2.056  -0.02823032
 2.057  0.13788540
 2.057  0.14403227
 2.058  0.32100397
 2.058  0.36026538
 2.058  0.39824472
 2.059  0.47512852
 2.059  0.79339144
 2.060  0.94809009
 2.061  1.15282500
 2.061  1.33468806
 2.062  1.46969728
 2.062  1.54646792
 2.063  1.63659976
 2.063  1.74482164
 2.063  1.91216185
 2.064  1.93845929
 2.064  1.89580926
 2.065  1.95420263
 2.066  1.88701440
 2.066  1.91470874
 2.067  1.85789163
 2.067  1.75771513
 2.067  1.55809185
 2.068  1.65042355
 2.068  1.44172345
 2.069  1.48651681
 2.070  1.18856268
 2.070  0.87712172
 2.071  0.68632120
 2.071  0.47418034
 2.071  0.38447736
 2.072  0.33188132
 2.072  0.29952945
 2.073  0.13135009
 2.074  0.24580803
 2.074  0.01816414
 2.075  0.08507923
 2.075  -0.03583699
 2.075  -0.07589299
 2.076  -0.05380409
 2.076  0.14307200
 2.077  0.24969148
 2.078  0.15940713
 2.078  0.43007499
 2.079  0.50112491
 2.079  0.55796221
 2.079  0.70354626
 2.080  1.01954422
 2.080  1.20783283
 2.081  1.41253500
 2.082  1.52570789
 2.082  1.61901420
 2.083  1.63865620
 2.083  1.84368042
 2.083  1.93884899
 2.084  2.00047217
 2.084  1.90204664
 2.085  1.86324745
 2.086  1.93108305
 2.086  1.95760049
 2.087  1.80295482
 2.087  1.75019579
 2.087  1.57606837
 2.088  1.59199830
 2.088  1.44976498
 2.089  1.30723206
 2.090  1.13969076
 2.090  0.91435357
 2.091  0.73814840
 2.091  0.52711801
 2.091  0.49191390
 2.092  0.36423894
 2.092  0.33986345
 2.093  0.14631693
 2.094  0.04396099
 2.094  -0.00480588
 2.095  0.02474089
 2.095  0.06550800
 2.095  -0.00670074
 2.096  0.06128927
 2.096  0.09515150
 2.097  0.28572440
 2.098  0.29693339
 2.098  0.30256269
 2.099  0.41171790
 2.099  0.45298776
 2.099  0.68755159
 2.100  0.98233224
 2.100  1.27689997
 2.101  1.30265969
 2.102  1.47969341
 2.102  1.43947649
 2.103  1.65787220
 2.103  1.72202698
 2.103  1.86922501
 2.104  1.91619262
 2.104  1.98228679
 2.105  1.91077720
 2.106  1.94798282
 2.106  1.93723280
 2.107  1.85531680
 2.107  1.81670071
 2.107  1.64938566
 2.108  1.59342563
 2.108  1.48755916
 2.109  1.48526289
 2.110  1.22283594
 2.110  0.93039404
 2.111  0.62081393
 2.111  0.54942351
 2.111  0.42504554
 2.112  0.32648061
 2.112  0.25383752
 2.113  0.20457109
 2.114  0.05841452
 2.114  0.04599517
 2.115  0.02515498
 2.115  -0.08556005
 2.115  -0.01145714
 2.116  0.08251320
 2.116  0.04667448
 2.117  0.17194296
 2.118  0.27676833
 2.118  0.47037687
 2.119  0.47664141
 2.119  0.55338701
 2.119  0.75852960
 2.120  1.00501078
 2.120  1.22948162
 2.121  1.39567481
 2.122  1.56038475
 2.122  1.62612932
 2.123  1.61925364
 2.123  1.81001323
 2.123  1.87886903
 2.124  1.99517995
 2.124  1.97142058
 2.125  1.87621692
 2.126  1.92020817
 2.126  1.86869182
 2.127  1.96019883
 2.127  1.73466043
 2.127  1.67513342
 2.128  1.49888585
 2.128  1.52021324
 2.129  1.32857698
 2.130  1.31051512
 2.130  0.98475504
 2.131  0.85287551
 2.131  0.39707539
 2.131  0.49593536
 2.132  0.43403624
 2.132  0.27143992
 2.133  0.18083309
 2.134  0.15735621
 2.134  -0.03884297
 2.135  0.00749760
 2.135  0.05455035
 2.135  0.01569946
 2.136  0.04567637
 2.136  0.08283791
 2.137  0.15712997
 2.138  0.33067279
 2.138  0.45261198
 2.139  0.35423388
 2.139  0.43634613
 2.139  0.74391655
 2.140  1.04074882
 2.140  1.27145174
 2.141  1.38956338
 2.142  1.48340466
 2.142  1.57084243
 2.143  1.64124933
 2.143  1.81200615
 2.143  1.90766253
 2.144  1.84238277
 2.144  1.93301850
 2.145  1.96630468
 2.146  2.02264007
 2.146  1.87919022
 2.147  1.83940641
 2.147  1.78717709
 2.147  1.68316819
 2.148  1.59293520
 2.148  1.61119094
 2.149  1.32239365
 2.150  1.22763013
 2.150  1.02043437
 2.151  0.76950413
 2.151  0.45566138
 2.151  0.46734125
 2.152  0.33695704
 2.152  0.28286033
 2.153  0.15133476
 2.154  0.04105730
 2.154  0.06661545
 2.155  0.03820635
 2.155  0.09631318
 2.155  0.05458857
 2.156  -0.00893424
 2.156  0.07531413
 2.157  0.19811338
 2.158  0.36288716
 2.158  0.33438901
 2.159  0.47100169
 2.159  0.46629035
 2.159  0.68840990
 2.160  0.98899586
 2.160  1.27293742
 2.161  1.53621743
 2.162  1.48663348
 2.162  1.58042216
 2.163  1.62458571
 2.163  1.77372191
 2.163  1.85204050
 2.164  2.00366968
 2.164  1.97445051
 2.165  1.92787197
 2.166  1.94468834
 2.166  2.00140351
 2.167  1.89778342
 2.167  1.73065613
 2.167  1.61703246
 2.168  1.52205527
 2.168  1.51083192
 2.169  1.36060403
 2.170  1.25849432
 2.170  0.94348622
 2.171  0.74859238
 2.171  0.63633097
 2.171  0.45828536
 2.172  0.30193243
 2.172  0.36425195
 2.173  0.23186397
 2.174  0.04170063
 2.174  0.01057318
 2.175  0.07858421
 2.175  -0.04373460
 2.175  0.09969792
 2.176  0.04872417
 2.176  0.07736568
 2.177  0.21436023
 2.178  0.36677591
 2.178  0.34075083
 2.179  0.42414001
 2.179  0.45801383
 2.179  0.71206020
 2.180  0.98415735
 2.180  1.20416318
 2.181  1.48359723
 2.182  1.48801927
 2.182  1.60790820
 2.183  1.72626164
 2.183  1.69461309
 2.183  1.94681708
 2.184  1.97465742
 2.184  1.86656288
 2.185  1.89723276
 2.186  1.93374287
 2.186  1.97972223
 2.187  1.89693243
 2.187  1.78737651
 2.188  1.62820681
 2.188  1.64615608
 2.188  1.46208632
 2.189  1.50894737
 2.189  1.22201034
 2.190  1.07676590
 2.191  0.75446591
 2.191  0.52035687
 2.192  0.44215192
 2.192  0.42926022
 2.192  0.29870853
 2.193  0.09724815
 2.193  0.06273145
 2.194  0.05212605
 2.195  0.02173945
 2.195  0.04533081
 2.196  -0.03953070
 2.196  0.04131213
 2.196  0.04052365
 2.197  0.16019819
 2.197  0.32451360
 2.198  0.40128893
 2.199  0.41446380
 2.199  0.57616585
 2.200  0.73065099
 2.200  0.93909801
 2.200  1.28064890
 2.201  1.33570250
 2.201  1.51499686
 2.202  1.55714903
 2.203  1.68793493
 2.203  1.87909530
 2.204  1.94025460
 2.204  1.91499958
 2.204  1.88390618
 2.205  1.88662660
 2.205  1.89727702
 2.206  1.91369832
 2.207  1.98887153
 2.207  1.84354709
 2.208  1.73902236
 2.208  1.63413361
 2.208  1.48720401
 2.209  1.46569685
 2.209  1.29825141
 2.210  0.94754961
 2.211  0.74027813
 2.211  0.54246895
 2.212  0.34260089
 2.212  0.38266682
 2.212  0.32468830
 2.213  0.20237732
 2.213  0.14414267
 2.214  -0.02679268
 2.215  -0.01904068
 2.215  -0.04435528
 2.216  -0.01205585
 2.216  0.00515717
 2.216  0.16813089
 2.217  0.16125983
 2.217  0.38930009
 2.218  0.44446157
 2.219  0.44888562
 2.219  0.47648243
 2.220  0.77842674
 2.220  0.97730457
 2.220  1.16335589
 2.221  1.43321327
 2.221  1.51898929
 2.222  1.53354610
 2.223  1.58526629
 2.223  1.74019710
 2.224  1.97176335
 2.224  1.96821924
 2.224  1.94414613
 2.225  1.97558095
 2.225  1.93743322
 2.226  1.91162991
 2.227  1.85441869
 2.227  1.75763878
 2.228  1.56641993
 2.228  1.56967969
 2.228  1.55341933
 2.229  1.51153813
 2.229  1.35296694
 2.230  0.98510795
 2.231  0.69129691
 2.231  0.52753880
 2.232  0.49637836
 2.232  0.31863645
 2.232  0.26739517
 2.233  0.20148781
 2.233  0.08865274
 2.234  0.04922010
 2.235  0.01207269
 2.235  -0.03777612
 2.236  0.04328316
 2.236  0.05260864
 2.236  0.09202362
 2.237  0.24865208
 2.237  0.36846533
 2.238  0.44936896
 2.239  0.46111509
 2.239  0.54391310
 2.240  0.68606850
 2.240  0.96333384
 2.240  1.27660732
 2.241  1.36611718
 2.241  1.53349866
 2.242  1.56682501
 2.243  1.67259785
 2.243  1.80817636
 2.244  1.79736474
 2.244  1.92849657
 2.244  1.92951028
 2.245  1.93401033
 2.245  1.99601867
 2.246  1.97230361
 2.247  1.84202362
 2.247  1.78046837
 2.248  1.62587082
 2.248  1.56706199
 2.248  1.55923015
 2.249  1.44928851
 2.249  1.19241409
 2.250  0.87937643
 2.251  0.76715244
 2.251  0.54622227
 2.252  0.56617975
 2.252  0.29890642
 2.252  0.32238583
 2.253  0.13221017
 2.253  0.07547262
 2.254  0.07816331
 2.255  0.06916725
 2.255  0.11350183
 2.256  0.02416840
 2.256  0.03779807
 2.256  0.12762557
 2.257  0.26924963
 2.257  0.36114818
 2.258  0.50373525
 2.259  0.41214727
 2.259  0.56343815
 2.260  0.78999631
 2.260  1.06358690
 2.260  1.31182809
 2.261  1.39883419
 2.261  1.46178453
 2.262  1.59469872
 2.263  1.65910192
 2.263  1.78272068
 2.264  1.84796604
 2.264  2.02730888
 2.264  1.95830314
 2.265  1.96330589
 2.265  1.89034356
 2.266  1.90700161
 2.267  1.92113115
 2.267  1.78410373
 2.268  1.75451661
 2.268  1.55602267
 2.268  1.47085734
 2.269  1.37655667
 2.269  1.22443189
 2.270  0.95033801
 2.271  0.70771843
 2.271  0.48098471
 2.272  0.55294002
 2.272  0.40345898
 2.272  0.25457992
 2.273  0.14171374
 2.273  0.11489547
 2.274  0.07437385
 2.275  0.01871101
 2.275  0.14239237
 2.276  0.06132672
 2.276  0.05798491
 2.276  0.12100701
 2.277  0.26732686
 2.277  0.27191956
 2.278  0.40390519
 2.279  0.48556981
 2.279  0.61675507
 2.280  0.67865834
 2.280  1.04459638
 2.280  1.12476965
 2.281  1.43504606
 2.281  1.49239586
 2.282  1.52731734
 2.283  1.68397393
 2.283  1.73992974
 2.284  1.92186063
 2.284  2.03161419
 2.284  2.03428824
 2.285  1.98181984
 2.285  1.96051313
 2.286  1.93404659
 2.287  1.93165666
 2.287  1.72328204
 2.288  1.66843521
 2.288  1.63803687
 2.288  1.54886083
 2.289  1.44232566
 2.289  1.22076991
 2.290  0.94982381
 2.291  0.82299021
 2.291  0.52286501
 2.292  0.49259466
 2.292  0.39879738
 2.292  0.27409199
 2.293  0.30601618
 2.293  0.03431847
 2.294  0.04648283
 2.295  0.07217470
 2.295  -0.04070822
 2.296  0.08907160
 2.296  -0.05859753
 2.296  0.07643253
 2.297  0.15584879
 2.297  0.36632318
 2.298  0.34524966
 2.299  0.35186953
 2.299  0.52915782
 2.300  0.81461600
 2.300  0.92659884
 2.300  1.15106293
 2.301  1.46246889
 2.301  1.54338732
 2.302  1.54031867
 2.303  1.60344565
 2.303  1.80929452
 2.304  1.86132808
 2.304  1.92852405
 2.304  1.98432978
 2.305  1.95596518
 2.305  1.91396687
 2.306  1.86995732
 2.307  1.90763257
 2.307  1.72572434
 2.308  1.66506528
 2.308  1.61732492
 2.308  1.58449602
 2.309  1.34579990
 2.309  1.22792783
 2.310  0.96311176
 2.311  0.76786901
 2.311  0.49215592
 2.312  0.42233061
 2.312  0.46151845
 2.313  0.34392144
 2.313  0.17852916
 2.313  0.11417016
 2.314  0.02693795
 2.314  0.01445741
 2.315  0.06386427
 2.316  0.06806072
 2.316  0.09579048
 2.317  0.03731493
 2.317  0.13202984
 2.317  0.29411468
 2.318  0.42480124
 2.318  0.54252310
 2.319  0.52911325
 2.320  0.74597885
 2.320  1.02457402
 2.321  1.27194639
 2.321  1.49437833
 2.321  1.59258835
 2.322  1.66120481
 2.322  1.64817518
 2.323  1.75173305
 2.324  1.83658507
 2.324  2.12044314
 2.325  1.96217114
 2.325  2.00087987
 2.325  1.85844114
 2.326  1.89710466
 2.326  1.90740045
 2.327  1.79557609
 2.328  1.69906013
 2.328  1.56469192
 2.329  1.58960357
 2.329  1.35098789
 2.329  1.29742909
 2.330  0.99873566
 2.330  0.71497728
 2.331  0.50706326
 2.332  0.55732151
 2.332  0.43786671
 2.333  0.28706364
 2.333  0.18520807
 2.333  -0.02300511
 2.334  -0.04083942
 2.334  0.04577275
 2.335  -0.00185532
 2.336  0.12071430
 2.336  0.04873296
 2.337  0.18792672
 2.337  0.20472215
 2.337  0.26884043
 2.338  0.41262318
 2.338  0.43586644
 2.339  0.52485236
 2.340  0.71580156
 2.340  0.98993153
 2.341  1.26407183
 2.341  1.37147405
 2.341  1.49944928
 2.342  1.60674182
 2.342  1.75999670
 2.343  1.77359359
 2.344  1.94163296
 2.344  2.00699194
 2.345  1.92104519
 2.345  1.89741305
 2.345  1.97380767
 2.346  1.98346005
 2.346  1.87895675
 2.347  1.78687433
 2.348  1.67793911
 2.348  1.53910798
 2.349  1.52613119
 2.349  1.41600047
 2.349  1.14287788
 2.350  0.98134911
 2.350  0.72703331
 2.351  0.59581992
 2.352  0.47464499
 2.352  0.42890745
 2.353  0.30630085
 2.353  0.22996631
 2.353  0.09649355
 2.354  0.08757440
 2.354  -0.01272142
 2.355  0.05158654
 2.356  0.05461485
 2.356  0.15718652
 2.357  0.17495724
 2.357  0.18810709
 2.357  0.37195563
 2.358  0.41206073
 2.358  0.42629439
 2.359  0.56759462
 2.360  0.66856568
 2.360  1.01682009
 2.361  1.20076881
 2.361  1.45570150
 2.361  1.50247608
 2.362  1.60381002
 2.362  1.71994867
 2.363  1.82596392
 2.364  1.88859780
 2.364  1.96213151
 2.365  1.97749680
 2.365  1.91136122
 2.365  2.00844921
 2.366  1.82511912
 2.366  1.92260028
 2.367  1.75654303
 2.368  1.67645198
 2.368  1.61253921
 2.369  1.43248870
 2.369  1.38331888
 2.369  1.26047047
 2.370  1.04510288
 2.370  0.78097405
 2.371  0.51345697
 2.372  0.49778209
 2.372  0.43274616
 2.373  0.33484900
 2.373  0.23613876
 2.373  0.07162015
 2.374  0.02498521
 2.374  -0.01872418
 2.375  0.01257283
 2.376  0.00125795
 2.376  0.01973205
 2.377  0.10112061
 2.377  0.29926120
 2.377  0.30124674
 2.378  0.39763950
 2.378  0.49464641
 2.379  0.59549143
 2.380  0.72140078
 2.380  1.03657032
 2.381  1.25256338
 2.381  1.37364972
 2.381  1.57555589
 2.382  1.48517499
 2.382  1.63596985
 2.383  1.82167556
 2.384  1.80895404
 2.384  1.97471482
 2.385  2.02483259
 2.385  1.92816616
 2.385  1.89175194
 2.386  1.89311084
 2.386  1.89505830
 2.387  1.81648250
 2.388  1.68425679
 2.388  1.56604964
 2.389  1.48310955
 2.389  1.47741149
 2.389  1.31210380
 2.390  0.94980198
 2.390  0.76324336
 2.391  0.56250515
 2.392  0.39476671
 2.392  0.41244662
 2.393  0.33051779
 2.393  0.26454115
 2.393  0.02293446
 2.394  0.03059878
 2.394  0.04653609
 2.395  0.07273044
 2.396  0.06293108
 2.396  0.07673570
 2.397  0.14213761
 2.397  0.20931442
 2.397  0.31163165
 2.398  0.47167715
 2.398  0.54259839
 2.399  0.56020161
 2.400  0.78002024
 2.400  1.06516775
 2.401  1.19912488
 2.401  1.48548793
 2.401  1.58278264
 2.402  1.61914341
 2.402  1.74420192
 2.403  1.81312531
 2.404  1.94850568
 2.404  1.92322605
 2.405  1.93179028
 2.405  1.92977229
 2.405  1.88329619
 2.406  1.90558113
 2.406  2.00051330
 2.407  1.81161735
 2.408  1.59648435
 2.408  1.58404686
 2.409  1.60341560
 2.409  1.38844264
 2.409  1.26400609
 2.410  0.98772963
 2.410  0.68727935
 2.411  0.55029055
 2.412  0.59142726
 2.412  0.48217399
 2.413  0.34256479
 2.413  0.13791674
 2.413  0.08478980
 2.414  0.05982058
 2.414  0.05979553
 2.415  0.03814489
 2.416  0.08090519
 2.416  0.05359879
 2.417  0.06582335
 2.417  0.19735467
 2.417  0.32766454
 2.418  0.46751922
 2.418  0.46367518
 2.419  0.49792368
 2.420  0.68594890
 2.420  1.14334478
 2.421  1.28848971
 2.421  1.42923913
 2.421  1.44440221
 2.422  1.55898070
 2.422  1.64863091
 2.423  1.76175686
 2.424  1.85920636
 2.424  1.95237586
 2.425  2.00168190
 2.425  1.94437025
 2.425  2.02492172
 2.426  1.87275376
 2.426  2.02092675
 2.427  1.72597749
 2.428  1.63631366
 2.428  1.61318122
 2.429  1.49576869
 2.429  1.30160537
 2.429  1.22842394
 2.430  0.93226192
 2.430  0.66144290
 2.431  0.59991774
 2.432  0.45720556
 2.432  0.44440666
 2.433  0.31401146
 2.433  0.22899458
 2.433  0.13886719
 2.434  0.08933933
 2.434  -0.01361604
 2.435  0.05109766
 2.436  -0.02710716
 2.436  0.01358611
 2.437  0.12271403
 2.437  0.09599287
 2.438  0.29415613
 2.438  0.41946465
 2.438  0.50925135
 2.439  0.57826311
 2.439  0.71884607
 2.440  0.98154275
 2.441  1.21928497
 2.441  1.48842369
 2.442  1.43651935
 2.442  1.49725460
 2.442  1.65581296
 2.443  1.72945853
 2.443  1.87637209
 2.444  2.03302970
 2.445  1.93124250
 2.445  1.95672146
 2.446  1.93977742
 2.446  1.85347743
 2.446  1.90052700
 2.447  1.80907704
 2.447  1.72740736
 2.448  1.62328713
 2.449  1.56090047
 2.449  1.48684669
 2.450  1.27054329
 2.450  0.99073852
 2.450  0.75110818
 2.451  0.50029112
 2.451  0.52254699
 2.452  0.37972544
 2.453  0.33894479
 2.453  0.17543462
 2.454  0.10031334
 2.454  0.02383727
 2.454  0.09239970
 2.455  0.05102554
 2.455  0.09745311
 2.456  0.10014363
 2.457  0.11289111
 2.457  0.24812427
 2.458  0.30756754
 2.458  0.39448923
 2.458  0.50154812
 2.459  0.55260178
 2.459  0.79896921
 2.460  0.91971941
 2.461  1.18593114
 2.461  1.45592712
 2.462  1.50834905
 2.462  1.64841358
 2.462  1.67105260
 2.463  1.89588533
 2.463  1.89134728
 2.464  1.95922453
 2.465  1.99478656
 2.465  1.96146897
 2.466  1.95659294
 2.466  2.09390377
 2.466  1.95360283
 2.467  1.76585382
 2.467  1.73529815
 2.468  1.55718499
 2.469  1.59452951
 2.469  1.41930372
 2.470  1.16469365
 2.470  0.97909154
 2.470  0.81085598
 2.471  0.52932970
 2.471  0.40944755
 2.472  0.46480421
 2.473  0.28040548
 2.473  0.24838533
 2.474  0.03515059
 2.474  0.06803917
 2.474  0.08398336
 2.475  -0.00389854
 2.475  0.06248542
 2.476  0.02701632
 2.477  0.09569615
 2.477  0.24270816
 2.478  0.34275378
 2.478  0.37092513
 2.478  0.48083561
 2.479  0.56018041
 2.479  0.75400553
 2.480  1.00426831
 2.481  1.28087692
 2.481  1.35710769
 2.482  1.50387749
 2.482  1.64480711
 2.482  1.65091476
 2.483  1.74993322
 2.483  1.89354354
 2.484  1.94617681
 2.485  1.93862587
 2.485  1.92712212
 2.486  1.89988380
 2.486  1.84861479
 2.486  1.84815108
 2.487  1.74425501
 2.487  1.64408903
 2.488  1.66267167
 2.489  1.55399483
 2.489  1.43637920
 2.490  1.21348550
 2.490  0.94574505
 2.490  0.73562699
 2.491  0.59971538
 2.491  0.36225628
 2.492  0.42287627
 2.493  0.25173163
 2.493  0.16987830
 2.494  -0.00590831
 2.494  0.07369357
 2.494  0.06584757
 2.495  0.08516136
 2.495  0.02177089
 2.496  0.10215436
 2.497  0.02883123
 2.497  0.16583955
 2.498  0.31023516
 2.498  0.40701908
 2.498  0.47072604
 2.499  0.58081662
 2.499  0.76998738
 2.500  0.99547691
 2.501  1.25929408
 2.501  1.52795851
 2.502  1.48384921
 2.502  1.57557194
 2.502  1.68170632
 2.503  1.78481955
 2.503  1.96579890
 2.504  1.92665348
 2.505  1.93119119
 2.505  1.90283897
 2.506  2.01538003
 2.506  1.96445433
 2.506  1.89914184
 2.507  1.85275067
 2.507  1.66602332
 2.508  1.52550297
 2.509  1.53891912
 2.509  1.43039614
 2.510  1.18912410
 2.510  1.00821817
 2.510  0.72833584
 2.511  0.52033095
 2.511  0.45933825
 2.512  0.42066280
 2.513  0.38594754
 2.513  0.23730624
 2.514  0.15156894
 2.514  0.03167904
 2.514  0.02073413
 2.515  0.05856480
 2.515  0.14661105
 2.516  -0.00684852
 2.517  0.06039261
 2.517  0.20364823
 2.518  0.30631362
 2.518  0.39313244
 2.518  0.49148656
 2.519  0.58429200
 2.519  0.72531703
 2.520  1.00113600
 2.521  1.19330930
 2.521  1.44935115
 2.522  1.51512439
 2.522  1.55433355
 2.522  1.75582579
 2.523  1.86987741
 2.523  1.85178739
 2.524  1.88746420
 2.525  1.88846879
 2.525  1.91525886
 2.526  1.88381898
 2.526  1.99637644
 2.526  2.01359977
 2.527  1.80180557
 2.527  1.65310854
 2.528  1.66438294
 2.529  1.54651491
 2.529  1.39437216
 2.530  1.24678021
 2.530  1.00938168
 2.530  0.76531144
 2.531  0.58128862
 2.531  0.54648591
 2.532  0.40929749
 2.533  0.35068290
 2.533  0.25974559
 2.534  0.11577385
 2.534  -0.05507423
 2.534  -0.03747102
 2.535  0.12138833
 2.535  0.11508231
 2.536  0.06173226
 2.537  0.06516304
 2.537  0.10495462
 2.538  0.31311430
 2.538  0.34779754
 2.538  0.49147389
 2.539  0.50054710
 2.539  0.74617890
 2.540  1.01601568
 2.541  1.23904795
 2.541  1.40303101
 2.542  1.49903208
 2.542  1.56276705
 2.542  1.67384803
 2.543  1.78755021
 2.543  1.84286859
 2.544  1.96992676
 2.545  1.91116415
 2.545  1.89808922
 2.546  1.86749433
 2.546  1.86792186
 2.546  1.86942526
 2.547  1.81179865
 2.547  1.71041554
 2.548  1.56266495
 2.549  1.58012398
 2.549  1.42802129
 2.550  1.32765688
 2.550  0.99026904
 2.550  0.79470793
 2.551  0.59042441
 2.551  0.51026760
 2.552  0.42010150
 2.553  0.32661885
 2.553  0.18715421
 2.554  0.10199725
 2.554  0.20337863
 2.554  -0.06671121
 2.555  0.00554234
 2.555  0.07179691
 2.556  0.07543231
 2.557  0.08209300
 2.557  0.27925652
 2.558  0.36410237
 2.558  0.45201156
 2.558  0.53576871
 2.559  0.51886029
 2.559  0.75769302
 2.560  0.97619151
 2.561  1.26019899
 2.561  1.46446226
 2.562  1.50219906
 2.562  1.57119136
 2.563  1.70372196
 2.563  1.79604864
 2.563  1.83382938
 2.564  1.98027208
 2.564  1.94802176
 2.565  1.89160729
 2.566  1.96908856
 2.566  2.06607669
 2.567  1.94537993
 2.567  1.72283659
 2.567  1.63117381
 2.568  1.59118969
 2.568  1.49938413
 2.569  1.49787448
 2.570  1.28344596
 2.570  1.08920623
 2.571  0.74810893
 2.571  0.59520149
 2.571  0.45487422
 2.572  0.35523048
 2.572  0.27406935
 2.573  0.20505968
 2.574  -0.00648645
 2.574  0.04133170
 2.575  0.03251355
 2.575  0.02514629
 2.575  0.00900647
 2.576  0.02989654
 2.576  0.04025480
 2.577  0.17820997
 2.578  0.33018041
 2.578  0.38894275
 2.579  0.51068644
 2.579  0.61464673
 2.579  0.71282542
 2.580  0.97174086
 2.580  1.28473266
 2.581  1.31650948
 2.582  1.55128729
 2.582  1.52943090
 2.583  1.68619673
 2.583  1.81858488
 2.583  1.91778105
 2.584  1.92174192
 2.584  1.96970194
 2.585  1.85091073
 2.586  2.03117262
 2.586  1.86787575
 2.587  1.90931959
 2.587  1.74088426
 2.587  1.58481692
 2.588  1.61645817
 2.588  1.51124519
 2.589  1.37937444
 2.590  1.19103590
 2.590  0.97436980
 2.591  0.83378631
 2.591  0.55131770
 2.591  0.49747922
 2.592  0.37999595
 2.592  0.25501353
 2.593  0.20754881
 2.594  0.17444084
 2.594  -0.00124893
 2.595  0.01885762
 2.595  0.07568595
 2.595  0.10184880
 2.596  0.09803624
 2.596  0.01386075
 2.597  0.23792159
 2.598  0.32586107
 2.598  0.42452287
 2.599  0.46765463
 2.599  0.49677160
 2.599  0.77437121
 2.600  0.97796987
 2.600  1.23733140
 2.601  1.47440694
 2.602  1.54034659
 2.602  1.51315996
 2.603  1.68138758
 2.603  1.72795960
 2.603  1.86778503
 2.604  1.90821941
 2.604  1.97767906
 2.605  1.96084913
 2.606  2.02946674
 2.606  1.94873717
 2.607  1.93267927
 2.607  1.77723534
 2.607  1.72516033
 2.608  1.61690267
 2.608  1.54408112
 2.609  1.40509715
 2.610  1.32260508
 2.610  0.97772371
 2.611  0.71719250
 2.611  0.53428784
 2.611  0.45716870
 2.612  0.32926999
 2.612  0.36898934
 2.613  0.13659477
 2.614  0.07627467
 2.614  0.10569977
 2.615  0.13373667
 2.615  0.04296599
 2.615  0.04128906
 2.616  0.06257715
 2.616  0.08333359
 2.617  0.26538370
 2.618  0.37963262
 2.618  0.45612948
 2.619  0.45636856
 2.619  0.53962878
 2.619  0.69554083
 2.620  0.98636557
 2.620  1.22864214
 2.621  1.44974374
 2.622  1.55961839
 2.622  1.66365399
 2.623  1.64162434
 2.623  1.78722573
 2.623  1.87574505
 2.624  2.06582211
 2.624  1.99858023
 2.625  1.94192618
 2.626  2.00332880
 2.626  1.94512419
 2.627  1.86489407
 2.627  1.81503801
 2.627  1.63179697
 2.628  1.58527302
 2.628  1.45165891
 2.629  1.44000818
 2.630  1.17646412
 2.630  0.96652280
 2.631  0.84812611
 2.631  0.59490744
 2.631  0.39001153
 2.632  0.33768044
 2.632  0.31640843
 2.633  0.23446397
 2.634  0.03878967
 2.634  0.14596549
 2.635  0.11066213
 2.635  0.03660327
 2.635  0.11137055
 2.636  0.07392918
 2.636  0.08800779
 2.637  0.16285507
 2.638  0.36424688
 2.638  0.33222931
 2.639  0.38469184
 2.639  0.53549762
 2.639  0.76008445
 2.640  1.00238408
 2.640  1.29613765
 2.641  1.39684919
 2.642  1.50098282
 2.642  1.52459252
 2.643  1.64373984
 2.643  1.71012822
 2.643  1.94656272
 2.644  1.95123449
 2.644  1.95634924
 2.645  1.93488522
 2.646  1.96392822
 2.646  1.93867690
 2.647  1.80763215
 2.647  1.75593313
 2.647  1.63335324
 2.648  1.58231298
 2.648  1.53930662
 2.649  1.48208265
 2.650  1.23889964
 2.650  1.02548228
 2.651  0.76418467
 2.651  0.62572351
 2.651  0.41391365
 2.652  0.33818665
 2.652  0.28281783
 2.653  0.14898343
 2.654  0.18424198
 2.654  0.05993241
 2.655  0.07157412
 2.655  0.01923522
 2.655  0.04939841
 2.656  0.02496124
 2.656  0.15999875
 2.657  0.14674260
 2.658  0.30413130
 2.658  0.35196110
 2.659  0.49847983
 2.659  0.56492565
 2.659  0.72987347
 2.660  0.96172754
 2.660  1.24730913
 2.661  1.45614588
 2.662  1.59315756
 2.662  1.53949949
 2.663  1.71071780
 2.663  1.81534519
 2.663  1.90613821
 2.664  1.83811686
 2.664  1.97873811
 2.665  1.94894274
 2.666  1.88925172
 2.666  1.98518991
 2.667  1.78262195
 2.667  1.79386437
 2.667  1.59349065
 2.668  1.59083894
 2.668  1.54027156
 2.669  1.38200934
 2.670  1.27060549
 2.670  1.00933367
 2.671  0.71594204
 2.671  0.58902619
 2.671  0.43131270
 2.672  0.43047976
 2.672  0.31062103
 2.673  0.21963250
 2.674  0.08433266
 2.674  0.07628771
 2.675  0.04086472
 2.675  0.06566232
 2.675  0.07924485
 2.676  0.05970239
 2.676  0.18801489
 2.677  0.23521483
 2.678  0.19436696
 2.678  0.47335064
 2.679  0.46549252
 2.679  0.51338516
 2.679  0.69792570
 2.680  0.92689995
 2.680  1.23432497
 2.681  1.39577845
 2.682  1.51188994
 2.682  1.57233783
 2.683  1.60408923
 2.683  1.75251163
 2.683  1.91979462
 2.684  1.96685044
 2.684  1.97217084
 2.685  1.94787412
 2.686  1.95710198
 2.686  1.97271090
 2.687  1.80546902
 2.687  1.80130515
 2.688  1.70169161
 2.688  1.67394309
 2.688  1.47332801
 2.689  1.46690284
 2.689  1.29776037
 2.690  0.98689169
 2.691  0.70197815
 2.691  0.47228450
 2.692  0.46767745
 2.692  0.37847616
 2.692  0.36454859
 2.693  0.22803832
 2.693  0.03624809
 2.694  0.06029474
 2.695  0.01832344
 2.695  0.00071362
 2.696  -0.02088272
 2.696  0.04105910
 2.696  0.07636422
 2.697  0.18296512
 2.697  0.36041075
 2.698  0.31972128
 2.699  0.39345926
 2.699  0.50415086
 2.700  0.75814837
 2.700  0.99882291
 2.700  1.20371805
 2.701  1.39583356
 2.701  1.59375005
 2.702  1.58007476
 2.703  1.68850078
 2.703  1.67849818
 2.704  1.87574973
 2.704  1.93222984
 2.704  1.91345171
 2.705  1.95945326
 2.705  1.99627650
 2.706  1.93631864
 2.707  1.85629600
 2.707  1.75159317
 2.708  1.70753871
 2.708  1.52568136
 2.708  1.51767804
 2.709  1.45825409
 2.709  1.24295991
 2.710  0.91984996
 2.711  0.74757747
 2.711  0.54443163
 2.712  0.43704248
 2.712  0.48349596
 2.712  0.24261332
 2.713  0.15002288
 2.713  0.00323412
 2.714  0.08791379
 2.715  0.01825612
 2.715  0.04237205
 2.716  0.03465055
 2.716  0.10647584
 2.716  0.10339918
 2.717  0.14708365
 2.717  0.16598409
 2.718  0.40699601
 2.719  0.47484768
 2.719  0.54847642
 2.720  0.74937922
 2.720  1.01933945
 2.720  1.25603752
 2.721  1.43967505
 2.721  1.53771536
 2.722  1.62669373
 2.723  1.66740917
 2.723  1.80580488
 2.724  1.90862631
 2.724  1.86283721
 2.724  1.87856712
 2.725  1.94030413
 2.725  1.93985734
 2.726  1.93827445
 2.727  1.88157468
 2.727  1.76546575
 2.728  1.71043503
 2.728  1.62461385
 2.728  1.58370933
 2.729  1.44486342
 2.729  1.25751734
 2.730  0.98421631
 2.731  0.74825707
 2.731  0.58973253
 2.732  0.39812965
 2.732  0.34491406
 2.732  0.33856531
 2.733  0.24091614
 2.733  0.09670071
 2.734  0.03279194
 2.735  0.04849472
 2.735  0.06193123
 2.736  0.02452654
 2.736  0.02924795
 2.736  0.12726605
 2.737  0.21999378
 2.737  0.36456382
 2.738  0.46086284
 2.739  0.45335325
 2.739  0.54236184
 2.740  0.68712906
 2.740  1.02966544
 2.740  1.32481203
 2.741  1.45671048
 2.741  1.57881089
 2.742  1.55705441
 2.743  1.65587935
 2.743  1.70508722
 2.744  1.93340055
 2.744  1.92182549
 2.744  1.91131801
 2.745  1.92403010
 2.745  1.93271700
 2.746  1.90352165
 2.747  1.96589559
 2.747  1.79568986
 2.748  1.63570505
 2.748  1.56987765
 2.748  1.48071973
 2.749  1.41038198
 2.749  1.16768427
 2.750  1.03633085
 2.751  0.69856251
 2.751  0.56786427
 2.752  0.46031085
 2.752  0.50482161
 2.752  0.31415366
 2.753  0.15601690
 2.753  0.05429776
 2.754  0.00780420
 2.755  0.04374423
 2.755  -0.00427394
 2.756  0.01336445
 2.756  0.03805719
 2.756  0.21854798
 2.757  0.12636216
 2.757  0.34832406
 2.758  0.39532008
 2.759  0.44632980
 2.759  0.54306567
 2.760  0.76964157
 2.760  0.97173370
 2.760  1.20684842
 2.761  1.41885603
 2.761  1.51547908
 2.762  1.65147398
 2.763  1.71339030
 2.763  1.70926735
 2.764  1.92778623
 2.764  1.82818315
 2.764  1.95400201
 2.765  1.94169264
 2.765  1.85994989
 2.766  1.88785328
 2.767  1.92770106
 2.767  1.74774375
 2.768  1.62526444
 2.768  1.51353258
 2.768  1.44464368
 2.769  1.45042687
 2.769  1.26178481
 2.770  0.93363196
 2.771  0.68227370
 2.771  0.57108433
 2.772  0.45840088
 2.772  0.35353349
 2.772  0.30960206
 2.773  0.15861233
 2.773  0.06259644
 2.774  0.02126200
 2.775  -0.02012073
 2.775  0.05973280
 2.776  0.07970510
 2.776  -0.02470118
 2.776  0.12746410
 2.777  0.19015708
 2.777  0.27420337
 2.778  0.41266762
 2.779  0.41727595
 2.779  0.51440545
 2.780  0.76760596
 2.780  1.03271301
 2.780  1.17193899
 2.781  1.34432583
 2.781  1.59207548
 2.782  1.64981917
 2.783  1.60906798
 2.783  1.86013090
 2.784  1.81577638
 2.784  1.93241606
 2.784  2.01514831
 2.785  1.93906759
 2.785  1.99045019
 2.786  1.90414898
 2.787  1.94951612
 2.787  1.77395155
 2.788  1.70535105
 2.788  1.54477681
 2.788  1.42171296
 2.789  1.46913856
 2.789  1.33155331
 2.790  0.96655200
 2.791  0.77678547
 2.791  0.52197322
 2.792  0.47281173
 2.792  0.35043892
 2.792  0.28435290
 2.793  0.11428780
 2.793  0.12580339
 2.794  -0.03563002
 2.795  0.04263022
 2.795  0.01282647
 2.796  0.01393236
 2.796  0.06832289
 2.796  0.17848310
 2.797  0.27133818
 2.797  0.31545023
 2.798  0.46815921
 2.799  0.43176135
 2.799  0.49099803
 2.800  0.64695193
 2.800  0.93308652
 2.800  1.23950268
 2.801  1.38355732
 2.801  1.52097890
 2.802  1.55786958
 2.803  1.70421854
 2.803  1.79224500
 2.804  1.83367932
 2.804  1.97854670
 2.804  1.85199948
 2.805  1.92170059
 2.805  1.93279505
 2.806  1.91126281
 2.807  1.84350472
 2.807  1.80028251
 2.808  1.65134706
 2.808  1.56518846
 2.808  1.44031209
 2.809  1.39005062
 2.809  1.15561007
 2.810  1.03693373
 2.811  0.78269885
 2.811  0.53910036
 2.812  0.38796584
 2.812  0.37364559
 2.813  0.25295533
 2.813  0.18147264
 2.813  0.08483335
 2.814  -0.03965862
 2.814  0.07704167
 2.815  0.07063526
 2.816  0.00028077
 2.816  0.04425105
 2.817  0.03968775
 2.817  0.13813478
 2.817  0.20210691
 2.818  0.42108152
 2.818  0.36920340
 2.819  0.55978646
 2.820  0.65757638
 2.820  1.06602909
 2.821  1.23156235
 2.821  1.39775290
 2.821  1.56396853
 2.822  1.58504097
 2.822  1.64963975
 2.823  1.81719128
 2.824  1.84856284
 2.824  1.93637017
 2.825  2.00318242
 2.825  1.97583528
 2.825  1.87842020
 2.826  1.88814812
 2.826  1.92345242
 2.827  1.68585550
 2.828  1.60733801
 2.828  1.58853916
 2.829  1.54117685
 2.829  1.34156681
 2.829  1.21274378
 2.830  1.00235315
 2.830  0.73712351
 2.831  0.42815123
 2.832  0.46185413
 2.832  0.36951158
 2.833  0.34159895
 2.833  0.24684567
 2.833  0.12919099
 2.834  0.06536058
 2.834  0.00363112
 2.835  0.08636496
 2.836  0.02543763
 2.836  0.10637735
 2.837  0.04427819
 2.837  0.28497141
 2.837  0.31357671
 2.838  0.35332306
 2.838  0.44507255
 2.839  0.66506018
 2.840  0.64366417
 2.840  0.99975722
 2.841  1.29616727
 2.841  1.40190247
 2.841  1.52351251
 2.842  1.62418976
 2.842  1.65663270
 2.843  1.78019573
 2.844  1.78082826
 2.844  1.93329286
 2.845  1.92015740
 2.845  1.94992497
 2.845  1.91625425
 2.846  1.87350637
 2.846  1.86708298
 2.847  1.77743381
 2.848  1.67146288
 2.848  1.55500523
 2.849  1.41875688
 2.849  1.41692844
 2.849  1.27426106
 2.850  0.97096342
 2.850  0.78700193
 2.851  0.51955488
 2.852  0.34824376
 2.852  0.40152614
 2.853  0.31475793
 2.853  0.23501813
 2.853  0.03075351
 2.854  0.00582913
 2.854  0.03993422
 2.855  0.00392917
 2.856  -0.00093736
 2.856  -0.02511765
 2.857  0.12830979
 2.857  0.22494868
 2.857  0.28924789
 2.858  0.38354154
 2.858  0.41196137
 2.859  0.61874630
 2.860  0.77951033
 2.860  0.88861941
 2.861  1.25772393
 2.861  1.32841858
 2.861  1.53353368
 2.862  1.56843234
 2.862  1.64314582
 2.863  1.68964829
 2.864  1.86542028
 2.864  1.87997394
 2.865  1.95761585
 2.865  1.96566523
 2.865  1.87332367
 2.866  1.92573502
 2.866  1.87303003
 2.867  1.82387086
 2.868  1.60928689
 2.868  1.49284982
 2.869  1.57570158
 2.869  1.40309235
 2.869  1.09366990
 2.870  1.04726926
 2.870  0.79550563
 2.871  0.61603403
 2.872  0.36677078
 2.872  0.38664012
 2.873  0.38201009
 2.873  0.16716604
 2.873  0.03440046
 2.874  0.01800902
 2.874  -0.05754494
 2.875  0.08370274
 2.876  -0.02340740
 2.876  0.05306188
 2.877  0.10500227
 2.877  0.26154954
 2.877  0.26517866
 2.878  0.35880297
 2.878  0.48569667
 2.879  0.63514268
 2.880  0.72329414
 2.880  0.90243159
 2.881  1.21167046
 2.881  1.52729868
 2.881  1.55017151
 2.882  1.58717685
 2.882  1.63573490
 2.883  1.61147241
 2.884  1.87726736
 2.884  1.93222252
 2.885  1.90428828
 2.885  2.00591571
 2.885  1.95538688
 2.886  1.90292198
 2.886  1.81163470
 2.887  1.73052017
 2.888  1.59470311
 2.888  1.54847700
 2.889  1.42455701
 2.889  1.35791682
 2.889  1.20994382
 2.890  1.03047853
 2.890  0.74379935
 2.891  0.57178443
 2.892  0.41365795
 2.892  0.40476580
 2.893  0.28154649
 2.893  0.20198862
 2.893  0.03317726
 2.894  0.01976687
 2.894  0.03959806
 2.895  0.08673219
 2.896  0.04282695
 2.896  -0.07689070
 2.897  0.03866301
 2.897  0.11551596
 2.897  0.38205032
 2.898  0.32754923
 2.898  0.31878999
 2.899  0.53598944
 2.900  0.68615732
 2.900  1.04175209
 2.901  1.15425632
 2.901  1.38717568
 2.901  1.52772724
 2.902  1.48837379
 2.902  1.65131090
 2.903  1.71735969
 2.904  1.78357057
 2.904  1.93558618
 2.905  1.84229652
 2.905  1.93608879
 2.905  1.91259955
 2.906  1.88812756
 2.906  1.84237398
 2.907  1.72373685
 2.908  1.63153110
 2.908  1.65228872
 2.909  1.44017823
 2.909  1.45851751
 2.909  1.26068435
 2.910  0.92537577
 2.910  0.70371886
 2.911  0.58544510
 2.912  0.47154632
 2.912  0.27526734
 2.913  0.12619377
 2.913  0.18089812
 2.913  0.10647314
 2.914  -0.00778220
 2.914  0.00336468
 2.915  0.01096439
 2.916  0.09748908
 2.916  -0.03278957
 2.917  0.10925496
 2.917  0.18579020
 2.917  0.27880117
 2.918  0.33650724
 2.918  0.53549543
 2.919  0.58292441
 2.920  0.73982637
 2.920  0.93661828
 2.921  1.18728175
 2.921  1.36373827
 2.921  1.50184973
 2.922  1.53573946
 2.922  1.67370522
 2.923  1.66500203
 2.924  1.82137268
 2.924  1.92279154
 2.925  1.89086546
 2.925  1.89972108
 2.925  2.01023902
 2.926  2.00841314
 2.926  1.87216635
 2.927  1.67062761
 2.928  1.67738553
 2.928  1.44700061
 2.929  1.53109751
 2.929  1.34206534
 2.929  1.29149612
 2.930  0.92916626
 2.930  0.70564951
 2.931  0.54916713
 2.932  0.43044558
 2.932  0.44922957
 2.933  0.32646377
 2.933  0.15848151
 2.933  0.06415538
 2.934  -0.03422306
 2.934  -0.00331867
 2.935  0.12568083
 2.936  0.13090936
 2.936  -0.14440710
 2.937  0.07545612
 2.937  0.27623930
 2.938  0.32409054
 2.938  0.39117931
 2.938  0.37264935
 2.939  0.55149324
 2.939  0.68994187
 2.940  0.87974291
 2.941  1.24214140
 2.941  1.32094038
 2.942  1.53030370
 2.942  1.60286939
 2.942  1.64277011
 2.943  1.75727646
 2.943  1.89184203
 2.944  1.95752993
 2.945  1.89202809
 2.945  1.85803746
 2.946  1.86514468
 2.946  1.90209584
 2.946  1.76435571
 2.947  1.79309852
 2.947  1.62908605
 2.948  1.53466461
 2.949  1.56101147
 2.949  1.40266784
 2.950  1.31643270
 2.950  0.91055377
 2.950  0.75156129
 2.951  0.38639972
 2.951  0.30229233
 2.952  0.34141259
 2.953  0.34807999
 2.953  0.21782264
 2.954  0.04900048
 2.954  -0.01232195
 2.954  -0.03464730
 2.955  -0.04969813
 2.955  0.00607015
 2.956  -0.01895596
 2.957  0.01860534
 2.957  0.15996597
 2.958  0.26818922
 2.958  0.33564542
 2.958  0.42899840
 2.959  0.41887415
 2.959  0.66819351
 2.960  0.86872443
 2.961  1.23871543
 2.961  1.38648724
 2.962  1.44670148
 2.962  1.52722258
 2.962  1.63704886
 2.963  1.79816087
 2.963  1.79988423
 2.964  1.93161164
 2.965  1.95893175
 2.965  1.88118826
 2.966  1.96452806
 2.966  1.92290965
 2.966  1.79502220
 2.967  1.73854267
 2.967  1.62713042
 2.968  1.57429952
 2.969  1.44519607
 2.969  1.39198188
 2.970  1.17936949
 2.970  0.90951447
 2.970  0.71129465
 2.971  0.52336346
 2.971  0.47220482
 2.972  0.44116415
 2.973  0.31214990
 2.973  0.13376378
 2.974  0.03775729
 2.974  -0.00069765
 2.974  -0.08459590
 2.975  -0.08031829
 2.975  -0.10169449
 2.976  0.05525946
 2.977  -0.02453473
 2.977  0.14574575
 2.978  0.34138608
 2.978  0.38178363
 2.978  0.44837457
 2.979  0.56555303
 2.979  0.69937040
 2.980  0.91005903
 2.981  1.15018934
 2.981  1.40015082
 2.982  1.50687040
 2.982  1.57911464
 2.982  1.57794666
 2.983  1.67947277
 2.983  1.81293398
 2.984  1.89699638
 2.985  1.95606400
 2.985  1.76106965
 2.986  1.95393028
 2.986  1.99217914
 2.986  1.76935841
 2.987  1.73161368
 2.987  1.50534982
 2.988  1.59498179
 2.989  1.42614188
 2.989  1.42871744
 2.990  1.20692918
 2.990  0.96050850
 2.990  0.65571871
 2.991  0.55472740
 2.991  0.41959017
 2.992  0.37003044
 2.993  0.25620358
 2.993  0.11719406
 2.994  0.03460632
 2.994  0.01799929
 2.994  0.02218462
 2.995  0.03047790
 2.995  -0.04405383
 2.996  0.03560820
 2.997  -0.03444663
 2.997  0.16537124
 2.998  0.20061785
 2.998  0.30455108
 2.998  0.44568683
 2.999  0.54896501
 2.999  0.72364858
 3.000  0.86594478
 3.001  1.29379408
 3.001  1.38677422
 3.002  1.56814316
 3.002  1.52588545
 3.002  1.64856250
 3.003  1.79316414
 3.003  1.88387716
 3.004  1.83977058
 3.005  1.91951933
 3.005  1.96310527
 3.006  1.97046278
 3.006  1.90206075
 3.006  1.89236015
 3.007  1.79731316
 3.007  1.55897788
 3.008  1.58062160
 3.009  1.55383305
 3.009  1.39098774
 3.010  1.28800530
 3.010  0.96691531
 3.010  0.75308882
 3.011  0.45695669
 3.011  0.45083336
 3.012  0.40040478
 3.013  0.33757915
 3.013  0.21025942
 3.014  0.01151787
 3.014  0.01681404
 3.014  -0.04468090
 3.015  -0.00399301
 3.015  -0.07396039
 3.016  -0.03212460
 3.017  0.03655263
 3.017  0.21126325
 3.018  0.35621862
 3.018  0.28976930
 3.018  0.37736656
 3.019  0.52946338
 3.019  0.70688626
 3.020  0.82546819
 3.021  1.20610385
 3.021  1.41655815
 3.022  1.46846572
 3.022  1.58677033
 3.022  1.63770154
 3.023  1.74797032
 3.023  1.81595017
 3.024  1.88577397
 3.025  1.88713390
 3.025  1.90589537
 3.026  1.96842466
 3.026  1.89752163
 3.026  1.84420552
 3.027  1.77487998
 3.027  1.58213933
 3.028  1.57494503
 3.029  1.49022688
 3.029  1.39738692
 3.030  1.20917310
 3.030  1.03842521
 3.030  0.63967350
 3.031  0.38680649
 3.031  0.38310988
 3.032  0.34564474
 3.033  0.32765170
 3.033  0.06312914
 3.034  0.07208764
 3.034  0.09064828
 3.034  0.00255073
 3.035  -0.04429887
 3.035  -0.01834787
 3.036  -0.11232616
 3.037  0.06558688
 3.037  0.18793643
 3.038  0.33540932
 3.038  0.38460735
 3.038  0.44766276
 3.039  0.56011365
 3.039  0.70566450
 3.040  0.86128514
 3.041  1.13136120
 3.041  1.36905154
 3.042  1.48853332
 3.042  1.54424061
 3.042  1.56489856
 3.043  1.73047625
 3.043  1.81648512
 3.044  1.94882770
 3.045  1.83184410
 3.045  1.89207179
 3.046  1.83870722
 3.046  1.88200404
 3.046  1.90448073
 3.047  1.84066126
 3.047  1.59351007
 3.048  1.55330562
 3.049  1.44504509
 3.049  1.33842192
 3.050  1.17041431
 3.050  0.96972877
 3.050  0.73712618
 3.051  0.55342522
 3.051  0.38751078
 3.052  0.28820736
 3.053  0.14878764
 3.053  0.09176979
 3.054  0.11138956
 3.054  -0.10329731
 3.054  0.00658124
 3.055  0.02635839
 3.055  -0.03378508
 3.056  0.04277723
 3.057  0.09100991
 3.057  0.17640412
 3.058  0.31450463
 3.058  0.30491253
 3.058  0.47988736
 3.059  0.48330730
 3.059  0.67099538
 3.060  0.98497142
 3.061  1.21095673
 3.061  1.40830446
 3.062  1.48108425
 3.062  1.54856776
 3.063  1.53094050
 3.063  1.67074897
 3.063  1.72416112
 3.064  1.90135911
 3.064  1.90154304
 3.065  1.89328510
 3.066  1.81056254
 3.066  1.87798262
 3.067  1.86116675
 3.067  1.87085098
 3.067  1.59316519
 3.068  1.51441296
 3.068  1.51788270
 3.069  1.41121598
 3.070  1.16135892
 3.070  0.90260985
 3.071  0.74493664
 3.071  0.51907860
 3.071  0.33155099
 3.072  0.35811191
 3.072  0.20260408
 3.073  0.07470730
 3.074  0.04576874
 3.074  -0.03396558
 3.075  -0.01585457
 3.075  -0.06889308
 3.075  -0.07335015
 3.076  0.03938810
 3.076  0.04250685
 3.077  0.18572780
 3.078  0.35013656
 3.078  0.33561849
 3.079  0.28215090
 3.079  0.55707361
 3.079  0.66659036
 3.080  0.86877957
 3.080  1.14549898
 3.081  1.39295126
 3.082  1.48525888
 3.082  1.42001140
 3.083  1.63396460
 3.083  1.73082670
 3.083  1.77230897
 3.084  1.89407989
 3.084  1.88790930
 3.085  1.91798314
 3.086  1.83805782
 3.086  1.80121698
 3.087  1.80460345
 3.087  1.68002875
 3.087  1.62001160
 3.088  1.53207764
 3.088  1.42301419
 3.089  1.35675945
 3.090  1.22769202
 3.090  0.96040240
 3.091  0.67685104
 3.091  0.49768848
 3.091  0.36648315
 3.092  0.36519821
 3.092  0.23548750
 3.093  0.22070610
 3.094  0.07574147
 3.094  -0.01153040
 3.095  0.01468680
 3.095  0.06177612
 3.095  -0.10252601
 3.096  0.00031063
 3.096  0.07510742
 3.097  0.10974217
 3.098  0.26847276
 3.098  0.36637762
 3.099  0.44139262
 3.099  0.51463794
 3.099  0.68018506
 3.100  1.00511952
 3.100  1.25041636
 3.101  1.37512355
 3.102  1.47846292
 3.102  1.48426329
 3.103  1.52389977
 3.103  1.73203359
 3.103  1.85098096
 3.104  1.89472115
 3.104  1.88827298
 3.105  1.91731235
 3.106  2.01049020
 3.106  1.85025772
 3.107  1.78736726
 3.107  1.76798526
 3.107  1.59541533
 3.108  1.43556106
 3.108  1.36412950
 3.109  1.40235018
 3.110  1.20082286
 3.110  0.83981758
 3.111  0.63019140
 3.111  0.43583613
 3.111  0.42290107
 3.112  0.29865757
 3.112  0.19663178
 3.113  0.13888880
 3.114  0.07409757
 3.114  0.00271854
 3.115  -0.07616427
 3.115  -0.01999455
 3.115  -0.02488748
 3.116  -0.05971394
 3.116  0.06028541
 3.117  0.18279834
 3.118  0.24642670
 3.118  0.35207010
 3.119  0.38074570
 3.119  0.46928833
 3.119  0.65962287
 3.120  1.01481895
 3.120  1.21843373
 3.121  1.32649181
 3.122  1.42528001
 3.122  1.44129655
 3.123  1.60923732
 3.123  1.75332688
