 0.000  -0.00902390
 0.001  0.23693893
 0.001  0.41985181
 0.002  0.61316294
 0.002  0.58602182
 0.003  0.63296805
 0.003  0.75244287
 0.004  0.94443556
 0.004  0.99916227
 0.004  1.03316636
 0.005  0.96221130
 0.005  0.99383051
 0.006  0.92176065
 0.006  0.91430999
 0.007  0.77169504
 0.007  0.68449004
 0.008  0.58962149
 0.009  0.49181885
 0.009  0.44315644
 0.009  0.23146430
 0.010  0.04841327
 0.011  -0.23207247
 0.011  -0.46110817
 0.011  -0.53062888
 0.012  -0.52830558
 0.013  -0.64615132
 0.013  -0.81356688
 0.013  -0.83340283
 0.014  -1.02190303
 0.015  -1.04515218
 0.015  -0.89761631
 0.015  -0.96024159
 0.016  -0.95532861
 0.017  -0.84123666
 0.017  -0.86049120
 0.018  -0.66342378
 0.018  -0.60368169
 0.018  -0.49602477
 0.019  -0.36797261
 0.019  -0.23862883
 0.020  -0.04729033
 0.021  0.21716084
 0.021  0.42735850
 0.021  0.58078923
 0.022  0.61121676
 0.022  0.66615076
 0.023  0.74869127
 0.024  0.91118962
 0.024  0.98202394
 0.025  0.95716633
 0.025  0.94164920
 0.025  0.90322937
 0.026  0.97806737
 0.026  0.89348173
 0.027  0.77522512
 0.028  0.77076374
 0.028  0.69589657
 0.029  0.59112445
 0.029  0.38107951
 0.029  0.27111535
 0.030  0.04509920
 0.030  -0.20978736
 0.031  -0.37162523
 0.032  -0.48770860
 0.032  -0.56034221
 0.033  -0.66078819
 0.033  -0.85915633
 0.034  -0.91763257
 0.034  -0.88553029
 0.035  -0.88349220
 0.035  -0.96426461
 0.035  -0.99164948
 0.036  -0.91836963
 0.036  -0.86389954
 0.037  -0.74044599
 0.037  -0.59566078
 0.038  -0.54164083
 0.038  -0.45376558
 0.039  -0.42070890
 0.040  -0.18964421
 0.040  0.01992204
 0.041  0.27662706
 0.041  0.37009236
 0.042  0.51332408
 0.042  0.66677195
 0.043  0.71561207
 0.043  0.82966490
 0.043  0.96564697
 0.044  0.95162102
 0.044  0.91460913
 0.045  1.03135669
 0.045  1.00485840
 0.046  0.91090727
 0.046  0.84919897
 0.047  0.81609874
 0.048  0.65121597
 0.048  0.65087984
 0.049  0.59265070
 0.049  0.41624313
 0.050  0.28019230
 0.050  -0.00606708
 0.051  -0.24892348
 0.051  -0.41060846
 0.051  -0.53556278
 0.052  -0.41646837
 0.052  -0.57581566
 0.053  -0.63070933
 0.053  -0.91403380
 0.054  -0.92686992
 0.054  -0.93660763
 0.055  -0.95311835
 0.056  -1.04991046
 0.056  -0.90605629
 0.057  -0.86107493
 0.057  -0.73319653
 0.058  -0.57934940
 0.058  -0.53702105
 0.059  -0.41718645
 0.059  -0.42846144
 0.059  -0.17443086
 0.060  0.05827825
 0.060  0.28364348
 0.061  0.43148742
 0.061  0.57728739
 0.062  0.72479965
 0.063  0.72787390
 0.063  0.89133518
 0.064  0.98431475
 0.064  0.97520665
 0.065  0.90421370
 0.065  1.07377736
 0.066  0.93680697
 0.066  0.94345658
 0.067  0.91165536
 0.067  0.72094908
 0.068  0.80829465
 0.068  0.62206664
 0.069  0.45660469
 0.069  0.46855661
 0.070  0.30732084
 0.070  0.09559178
 0.070  -0.34152417
 0.071  -0.33395873
 0.071  -0.43064387
 0.072  -0.51113646
 0.072  -0.58116617
 0.073  -0.66041913
 0.073  -0.81843667
 0.074  -0.97715923
 0.074  -0.87614553
 0.075  -0.90988176
 0.075  -0.90361316
 0.076  -0.92658708
 0.076  -0.85915810
 0.077  -0.73975061
 0.077  -0.70147555
 0.078  -0.47872976
 0.079  -0.55252805
 0.079  -0.35766430
 0.080  -0.14645241
 0.080  0.08292137
 0.081  0.26875955
 0.081  0.51880409
 0.082  0.57718541
 0.082  0.59768027
 0.083  0.58131958
 0.083  0.81007720
 0.084  1.01344244
 0.084  0.99339412
 0.085  1.02877118
 0.085  0.96929673
 0.086  1.01919810
 0.086  0.99851731
 0.086  0.97420367
 0.087  0.82830485
 0.087  0.63870318
 0.088  0.72583341
 0.088  0.59001359
 0.089  0.57380081
 0.089  0.39739478
 0.090  -0.00719548
 0.090  -0.21078965
 0.091  -0.38330644
 0.091  -0.44227095
 0.092  -0.52165146
 0.092  -0.59069160
 0.093  -0.66670842
 0.093  -0.84505460
 0.094  -0.87085210
 0.095  -0.86205696
 0.095  -0.92642673
 0.096  -0.89466203
 0.096  -0.95041445
 0.097  -0.94121793
 0.097  -0.70874797
 0.098  -0.57471601
 0.098  -0.48842067
 0.099  -0.41744369
 0.099  -0.38351270
 0.100  -0.19442098
 0.100  0.04443910
 0.101  0.34697861
 0.101  0.57703584
 0.102  0.64074238
 0.102  0.66773535
 0.102  0.85523542
 0.103  0.93831711
 0.103  0.90301552
 0.104  1.07060466
 0.104  1.01755370
 0.105  1.03687894
 0.105  1.01934383
 0.106  0.99041665
 0.106  0.91060303
 0.107  0.74526421
 0.107  0.77799148
 0.108  0.57988411
 0.108  0.63699077
 0.109  0.49982743
 0.110  0.33232123
 0.110  0.05217506
 0.111  -0.13264563
 0.111  -0.31079898
 0.112  -0.42250343
 0.112  -0.51954743
 0.113  -0.55889811
 0.113  -0.78372837
 0.114  -0.76026787
 0.114  -0.91983062
 0.115  -0.85325142
 0.115  -0.92915757
 0.116  -0.90463867
 0.116  -0.90228792
 0.117  -0.87011599
 0.117  -0.69022962
 0.117  -0.59005071
 0.118  -0.51618848
 0.118  -0.47248995
 0.119  -0.37046775
 0.119  -0.13805385
 0.120  0.06789916
 0.120  0.38958327
 0.121  0.54157297
 0.121  0.66475621
 0.122  0.57971352
 0.122  0.72169031
 0.123  0.93424582
 0.123  0.93466639
 0.124  1.05994605
 0.124  1.09983862
 0.125  0.95740006
 0.126  1.06029749
 0.126  0.97461978
 0.127  0.89616184
 0.127  0.89549891
 0.128  0.71748232
 0.128  0.60224979
 0.129  0.57842938
 0.129  0.59483217
 0.130  0.29313246
 0.130  0.13011952
 0.131  -0.12064680
 0.131  -0.40723792
 0.132  -0.48149613
 0.132  -0.63237353
 0.133  -0.61132683
 0.133  -0.66351091
 0.134  -0.80319618
 0.134  -0.89863906
 0.135  -0.90402478
 0.135  -0.81173330
 0.136  -0.93749469
 0.136  -0.88604747
 0.137  -0.84484507
 0.137  -0.75061874
 0.138  -0.63219397
 0.138  -0.53627178
 0.139  -0.49115494
 0.139  -0.35317515
 0.140  -0.14931798
 0.140  0.11867332
 0.141  0.28689562
 0.141  0.51083815
 0.141  0.62213037
 0.142  0.62235815
 0.142  0.76705666
 0.143  0.83638960
 0.143  0.96324774
 0.144  1.01377951
 0.144  1.01265177
 0.145  1.03959864
 0.145  1.04722333
 0.146  1.03007716
 0.146  0.97247401
 0.147  0.80360272
 0.147  0.79570533
 0.148  0.68790034
 0.148  0.63959685
 0.149  0.49401404
 0.149  0.34980966
 0.150  0.05517732
 0.150  -0.23401676
 0.151  -0.31044811
 0.151  -0.45823154
 0.152  -0.49286098
 0.152  -0.59584168
 0.153  -0.71234915
 0.153  -0.81887275
 0.154  -0.81559727
 0.154  -0.86015382
 0.155  -0.83605368
 0.155  -0.83817883
 0.156  -0.82949909
 0.157  -0.74098149
 0.157  -0.77411739
 0.158  -0.51466745
 0.158  -0.58246373
 0.159  -0.47542181
 0.159  -0.27737940
 0.160  -0.19250574
 0.160  0.08031966
 0.161  0.32566101
 0.161  0.60014217
 0.162  0.58041710
 0.162  0.60133618
 0.163  0.83644979
 0.163  0.82585647
 0.164  1.01017718
 0.164  1.03274998
 0.165  1.02353569
 0.165  1.04108017
 0.166  1.09927174
 0.166  1.11331775
 0.167  1.07965895
 0.167  0.93537154
 0.168  0.82467905
 0.168  0.78977565
 0.169  0.59852283
 0.169  0.57791300
 0.170  0.41130941
 0.170  0.08057517
 0.171  -0.15074142
 0.171  -0.39168910
 0.172  -0.37677984
 0.172  -0.50461111
 0.172  -0.68938103
 0.173  -0.62464232
 0.173  -0.73862531
 0.174  -0.86681338
 0.174  -0.86337802
 0.175  -0.93052989
 0.175  -0.78298982
 0.176  -0.80710659
 0.176  -0.80197113
 0.177  -0.75948530
 0.177  -0.61842945
 0.178  -0.40042496
 0.178  -0.42500501
 0.179  -0.28972131
 0.179  -0.10305610
 0.180  0.08101627
 0.180  0.34994870
 0.181  0.56141346
 0.181  0.67369086
 0.182  0.58352829
 0.182  0.75370344
 0.183  0.90555528
 0.183  0.96351118
 0.184  1.05959732
 0.184  1.12228086
 0.185  1.17344918
 0.185  1.09393806
 0.186  1.06511129
 0.186  1.06595163
 0.187  0.82137381
 0.188  0.80061106
 0.188  0.76100276
 0.189  0.63783085
 0.189  0.57907678
 0.190  0.32315410
 0.190  0.09494855
 0.191  -0.11406598
 0.191  -0.37156126
 0.192  -0.47015749
 0.192  -0.50849258
 0.193  -0.65081705
 0.193  -0.66807787
 0.194  -0.81162683
 0.194  -0.82414365
 0.195  -0.85795507
 0.195  -0.76070440
 0.196  -0.84758712
 0.196  -0.86508579
 0.197  -0.75605005
 0.197  -0.68857924
 0.198  -0.56677654
 0.198  -0.52354076
 0.199  -0.49709574
 0.199  -0.33551408
 0.200  -0.09179137
 0.200  0.09921508
 0.201  0.36480480
 0.201  0.52816675
 0.202  0.61581615
 0.202  0.66177728
 0.203  0.86243882
 0.203  0.92675496
 0.203  0.99115444
 0.204  1.04835889
 0.204  0.98398572
 0.205  1.14197222
 0.205  1.07684064
 0.206  1.03396355
 0.206  1.13994377
 0.207  0.95555904
 0.207  0.85407014
 0.208  0.69852294
 0.208  0.64998773
 0.209  0.53693883
 0.209  0.38530346
 0.210  0.18149735
 0.210  -0.04030481
 0.211  -0.27560147
 0.211  -0.41210780
 0.212  -0.51238141
 0.212  -0.54298952
 0.213  -0.62507362
 0.213  -0.84373936
 0.214  -0.90363498
 0.214  -0.88422443
 0.215  -0.76418828
 0.215  -0.86951247
 0.216  -0.87148506
 0.216  -0.68122980
 0.217  -0.66210609
 0.217  -0.49363704
 0.218  -0.42056115
 0.218  -0.35616508
 0.219  -0.25599412
 0.220  -0.10028469
 0.220  0.10262296
 0.221  0.44692815
 0.221  0.59871533
 0.222  0.65157503
 0.222  0.70333080
 0.223  0.82697010
 0.223  0.89580107
 0.224  1.08539680
 0.224  1.04044480
 0.225  1.09961741
 0.225  1.03910618
 0.226  1.02740719
 0.226  1.07139549
 0.227  1.13049071
 0.227  0.93899026
 0.228  0.84435982
 0.228  0.81778871
 0.229  0.63977449
 0.229  0.53160167
 0.230  0.38008063
 0.230  0.15333170
 0.231  -0.12398925
 0.231  -0.30537745
 0.232  -0.35604138
 0.232  -0.33895645
 0.233  -0.55318205
 0.233  -0.66913580
 0.234  -0.71168990
 0.234  -0.84751506
 0.234  -0.75617092
 0.235  -0.76892119
 0.235  -0.85899044
 0.236  -0.79979630
 0.236  -0.77967960
 0.237  -0.62779761
 0.237  -0.50227192
 0.238  -0.50634581
 0.238  -0.31062769
 0.239  -0.18962485
 0.239  -0.19828562
 0.240  0.12906105
 0.240  0.39526419
 0.241  0.63846088
 0.241  0.76081308
 0.242  0.69210714
 0.242  0.86131091
 0.243  0.88267284
 0.243  1.04622137
 0.244  1.12500766
 0.244  1.12829526
 0.245  1.12868937
 0.245  1.10882853
 0.246  1.11038353
 0.246  1.09499790
 0.247  0.98033239
 0.247  0.87017693
 0.248  0.68417442
 0.248  0.60547332
 0.249  0.62445895
 0.249  0.43188707
 0.250  0.16081248
 0.251  -0.02289572
 0.251  -0.22561444
 0.252  -0.44100978
 0.252  -0.43805523
 0.253  -0.57500115
 0.253  -0.67189554
 0.254  -0.72060210
 0.254  -0.76185622
 0.255  -0.78390517
 0.255  -0.77930974
 0.256  -0.66013211
 0.256  -0.80487455
 0.257  -0.69226427
 0.257  -0.61243913
 0.258  -0.41167862
 0.258  -0.45588530
 0.259  -0.33450735
 0.259  -0.37839379
 0.260  -0.16629187
 0.260  0.11773408
 0.261  0.40551720
 0.261  0.63566306
 0.262  0.69488724
 0.262  0.81809359
 0.263  0.77202113
 0.263  0.88008149
 0.264  1.06415868
 0.264  1.12538807
 0.265  1.13169110
 0.265  1.12867121
 0.266  1.09124701
 0.266  1.11805181
 0.267  1.00959851
 0.267  0.92132553
 0.268  0.87588989
 0.268  0.73732176
 0.269  0.70583722
 0.269  0.59382900
 0.270  0.36847024
 0.270  0.13659078
 0.271  -0.06675879
 0.271  -0.27292116
 0.272  -0.34408419
 0.272  -0.44576694
 0.273  -0.46202854
 0.273  -0.62344821
 0.274  -0.73045503
 0.274  -0.80236156
 0.275  -0.72894329
 0.275  -0.81919818
 0.276  -0.70160491
 0.276  -0.75023018
 0.277  -0.74363266
 0.277  -0.62917912
 0.278  -0.50565879
 0.278  -0.39115406
 0.279  -0.31821299
 0.279  -0.27876753
 0.280  -0.03308209
 0.280  0.27665510
 0.281  0.42884118
 0.281  0.64494194
 0.281  0.67667899
 0.282  0.80121022
 0.282  0.78517070
 0.283  0.90939425
 0.283  1.04924292
 0.284  1.19794805
 0.284  1.13528783
 0.285  1.14467916
 0.285  1.17169260
 0.286  1.13898861
 0.286  1.06957487
 0.287  0.96289803
 0.287  0.82596870
 0.288  0.80885137
 0.288  0.80156330
 0.289  0.58409383
 0.289  0.39391974
 0.290  0.20808007
 0.290  -0.16903055
 0.291  -0.15193780
 0.291  -0.40089234
 0.292  -0.44754758
 0.292  -0.51790061
 0.293  -0.66934836
 0.293  -0.70947043
 0.294  -0.82342784
 0.294  -0.69406659
 0.295  -0.77921922
 0.295  -0.75993351
 0.296  -0.82000359
 0.296  -0.73111716
 0.297  -0.62520853
 0.297  -0.54676978
 0.298  -0.40837608
 0.298  -0.33295087
 0.299  -0.26496649
 0.299  -0.04885332
 0.300  0.16306229
 0.300  0.48350595
 0.301  0.69370269
 0.301  0.74965557
 0.302  0.82930637
 0.302  0.84701047
 0.303  1.00306173
 0.303  1.02906814
 0.304  1.10620199
 0.304  1.10616807
 0.305  1.11671560
 0.305  1.17716698
 0.306  1.07781140
 0.306  1.16207740
 0.307  1.02540751
 0.307  0.95975852
 0.308  0.78598958
 0.308  0.74595663
 0.309  0.70835034
 0.309  0.45776493
 0.310  0.18222981
 0.310  -0.10073136
 0.311  -0.26941119
 0.311  -0.29769090
 0.312  -0.39087764
 0.313  -0.46988374
 0.313  -0.66375973
 0.314  -0.69256533
 0.314  -0.66131139
 0.315  -0.72192871
 0.315  -0.70607735
 0.316  -0.76039214
 0.316  -0.83975883
 0.317  -0.81659145
 0.317  -0.55795866
 0.318  -0.52296342
 0.318  -0.36749810
 0.319  -0.29453224
 0.319  -0.21124605
 0.320  -0.00815283
 0.320  0.25977575
 0.321  0.44450857
 0.321  0.68356875
 0.322  0.82520873
 0.322  0.63955154
 0.323  0.81034592
 0.323  1.04492741
 0.324  1.07724747
 0.324  1.09963465
 0.325  1.17922746
 0.325  1.16203436
 0.326  1.27366992
 0.326  1.13262492
 0.327  1.12638261
 0.327  0.90938397
 0.328  0.84148268
 0.328  0.73995680
 0.329  0.80280203
 0.329  0.65067495
 0.330  0.43994900
 0.330  0.15416612
 0.331  -0.01908297
 0.331  -0.32272552
 0.332  -0.26890295
 0.332  -0.36887410
 0.333  -0.46732941
 0.333  -0.65026461
 0.334  -0.80629730
 0.334  -0.72959752
 0.335  -0.85401901
 0.335  -0.74277692
 0.336  -0.74983858
 0.336  -0.74044900
 0.337  -0.68532970
 0.337  -0.61318758
 0.338  -0.46943097
 0.338  -0.38936615
 0.339  -0.28079773
 0.339  -0.25435431
 0.340  -0.10515148
 0.340  0.14771759
 0.341  0.40258859
 0.341  0.70293807
 0.342  0.70839228
 0.342  0.77752024
 0.343  0.85121591
 0.343  0.97850764
 0.344  1.07091336
 0.344  1.21201352
 0.344  1.14877223
 0.345  1.20992328
 0.345  1.14540590
 0.346  1.15324022
 0.346  1.14588982
 0.347  1.08800298
 0.347  0.93698078
 0.348  0.87408884
 0.348  0.74403788
 0.349  0.62278918
 0.349  0.48973289
 0.350  0.16147245
 0.350  0.00745798
 0.351  -0.28948046
 0.351  -0.29612063
 0.352  -0.37757227
 0.352  -0.45193499
 0.353  -0.48883948
 0.353  -0.64453805
 0.354  -0.72754428
 0.354  -0.68280517
 0.355  -0.71550470
 0.355  -0.72279445
 0.356  -0.70405378
 0.356  -0.69774330
 0.357  -0.56049299
 0.357  -0.48767153
 0.358  -0.46377359
 0.358  -0.34971519
 0.359  -0.25026007
 0.359  0.00974319
 0.360  0.20466095
 0.360  0.53346277
 0.361  0.70457189
 0.361  0.73262124
 0.362  0.76719133
 0.362  0.87747015
 0.363  0.95547490
 0.363  1.18467823
 0.364  1.20231853
 0.364  1.18101944
 0.365  1.27735792
 0.365  1.19534311
 0.366  1.23568488
 0.366  1.10015560
 0.367  0.99741412
 0.367  0.86785195
 0.368  0.73435540
 0.368  0.73316284
 0.369  0.63380550
 0.369  0.47901941
 0.370  0.20873861
 0.370  0.03340582
 0.371  -0.24009109
 0.371  -0.33356013
 0.372  -0.27119797
 0.372  -0.45361661
 0.373  -0.55080427
 0.373  -0.59239124
 0.374  -0.73209922
 0.374  -0.64481988
 0.375  -0.72522645
 0.376  -0.67844782
 0.376  -0.78794869
 0.377  -0.66279129
 0.377  -0.51443011
 0.378  -0.47015777
 0.378  -0.40858464
 0.379  -0.28564228
 0.379  -0.19588717
 0.380  -0.10061831
 0.380  0.16950590
 0.381  0.55208551
 0.381  0.70719518
 0.382  0.77304533
 0.382  0.85053742
 0.383  0.94904625
 0.383  1.04971080
 0.384  1.19616110
 0.384  1.21529547
 0.385  1.09259289
 0.385  1.17146304
 0.386  1.22578573
 0.386  1.16175948
 0.387  1.08439467
 0.387  1.10140673
 0.388  0.95600953
 0.388  0.80496681
 0.389  0.72028718
 0.389  0.77287032
 0.390  0.53578218
 0.390  0.23389317
 0.391  -0.07973659
 0.391  -0.14958515
 0.392  -0.20267085
 0.392  -0.36876246
 0.393  -0.41479791
 0.393  -0.51011269
 0.394  -0.76995120
 0.394  -0.68131816
 0.395  -0.70112976
 0.395  -0.72160976
 0.396  -0.61279899
 0.396  -0.67954183
 0.397  -0.56556937
 0.397  -0.45216989
 0.398  -0.42373021
 0.398  -0.40793623
 0.399  -0.23019252
 0.399  -0.18630202
 0.400  -0.00947196
 0.400  0.35000256
 0.401  0.53888320
 0.401  0.66152527
 0.402  0.88173788
 0.402  0.85706628
 0.403  0.93102833
 0.403  1.01816182
 0.404  1.18342740
 0.404  1.06804862
 0.405  1.19727239
 0.405  1.22262753
 0.406  1.17868732
 0.406  1.12819468
 0.406  1.18170471
 0.407  0.98411224
 0.407  0.90676971
 0.408  0.84813963
 0.408  0.75302788
 0.409  0.74003340
 0.409  0.47679424
 0.410  0.31725175
 0.410  -0.03276803
 0.411  -0.19963885
 0.411  -0.31872388
 0.412  -0.36901248
 0.412  -0.37327928
 0.413  -0.60023013
 0.413  -0.55579490
 0.414  -0.75521139
 0.414  -0.73659118
 0.415  -0.64990272
 0.415  -0.64451123
 0.416  -0.61000157
 0.416  -0.61869979
 0.417  -0.54647081
 0.417  -0.48019405
 0.418  -0.32595563
 0.418  -0.23787875
 0.419  -0.16136913
 0.419  0.09565943
 0.420  0.37868711
 0.420  0.54083193
 0.421  0.75932100
 0.421  0.83441710
 0.422  0.83849797
 0.422  0.82094083
 0.423  1.03330574
 0.423  1.05340900
 0.424  1.18679556
 0.424  1.24546733
 0.425  1.20298328
 0.425  1.28760975
 0.426  1.06171035
 0.426  1.20613442
 0.427  0.98125939
 0.427  1.04532559
 0.428  0.85434590
 0.428  0.79717741
 0.429  0.77366220
 0.429  0.46358803
 0.430  0.19082971
 0.430  0.04739539
 0.431  -0.04921491
 0.431  -0.21629037
 0.432  -0.29207638
 0.432  -0.37823395
 0.433  -0.53668693
 0.433  -0.63734632
 0.434  -0.67291293
 0.434  -0.56676301
 0.435  -0.76609267
 0.435  -0.66535780
 0.436  -0.66452184
 0.436  -0.68016769
 0.437  -0.50251887
 0.438  -0.39007500
 0.438  -0.35496529
 0.439  -0.26188917
 0.439  -0.23179828
 0.440  -0.02831921
 0.440  0.28531211
 0.441  0.55889757
 0.441  0.65990983
 0.442  0.70690156
 0.442  0.83099202
 0.443  0.89697975
 0.443  1.09050995
 0.444  1.21077099
 0.444  1.21275098
 0.445  1.16125098
 0.445  1.21130040
 0.446  1.23085793
 0.446  1.22617717
 0.447  1.16358100
 0.447  1.02432079
 0.448  1.09882219
 0.448  0.87042107
 0.449  0.83225518
 0.449  0.72027172
 0.450  0.60596478
 0.450  0.28423168
 0.451  0.03330999
 0.451  -0.08058865
 0.452  -0.33251445
 0.452  -0.31210182
 0.453  -0.42619813
 0.453  -0.51507172
 0.454  -0.62002626
 0.454  -0.68778191
 0.455  -0.63681294
 0.455  -0.70311957
 0.456  -0.72047452
 0.456  -0.57799876
 0.457  -0.54368542
 0.457  -0.44888412
 0.458  -0.25922113
 0.458  -0.20771211
 0.459  -0.27151617
 0.459  -0.11247329
 0.460  0.05529510
 0.460  0.28453019
 0.461  0.60999936
 0.461  0.77794256
 0.462  0.87239977
 0.462  0.81690794
 0.463  0.98223609
 0.463  1.01184705
 0.464  1.16566146
 0.464  1.21641403
 0.465  1.24793706
 0.465  1.20574177
 0.466  1.33701239
 0.466  1.18186971
 0.467  1.20744386
 0.467  1.11555967
 0.468  0.93639519
 0.468  0.89578182
 0.469  0.82696841
 0.469  0.64666441
 0.469  0.54320789
 0.470  0.39377812
 0.470  -0.01821176
 0.471  -0.21982909
 0.471  -0.23339927
 0.472  -0.32194470
 0.472  -0.29321579
 0.473  -0.52096179
 0.473  -0.68280203
 0.474  -0.63686680
 0.474  -0.68740286
 0.475  -0.75821618
 0.475  -0.63147962
 0.476  -0.66064554
 0.476  -0.60239642
 0.477  -0.54573941
 0.477  -0.33866063
 0.478  -0.29627823
 0.478  -0.19799437
 0.479  -0.20121150
 0.479  0.13743097
 0.480  0.27446280
 0.480  0.55932173
 0.481  0.69849903
 0.481  0.69897909
 0.482  1.01977985
 0.482  0.97383545
 0.483  1.03690641
 0.483  1.19511889
 0.484  1.23013532
 0.484  1.27196599
 0.485  1.21054748
 0.485  1.22347552
 0.486  1.21920962
 0.486  1.14338936
 0.487  1.04375870
 0.487  0.96747198
 0.488  0.94339649
 0.488  0.74236597
 0.489  0.77649356
 0.489  0.64505849
 0.490  0.27245114
 0.490  0.07011746
 0.491  -0.14670041
 0.491  -0.35826764
 0.492  -0.26707434
 0.492  -0.41606968
 0.493  -0.52073602
 0.493  -0.65655273
 0.494  -0.64265483
 0.494  -0.62016199
 0.495  -0.69817036
 0.495  -0.66101258
 0.496  -0.67042961
 0.496  -0.55472577
 0.497  -0.45786490
 0.497  -0.37846997
 0.498  -0.26676459
 0.498  -0.25402400
 0.499  -0.11320067
 0.499  0.00300355
 0.500  0.33914328
 0.500  0.54877770
 0.501  0.74710850
 0.501  0.88396744
 0.502  0.89950316
 0.502  0.95912679
 0.503  1.10699481
 0.503  1.22116239
 0.504  1.27894496
 0.504  1.23949355
 0.505  1.21531067
 0.505  1.31545646
 0.506  1.24343457
 0.506  1.22254330
 0.507  1.00665254
 0.507  0.99034114
 0.508  0.97527732
 0.508  0.82661378
 0.509  0.75005698
 0.509  0.61524694
 0.510  0.38003723
 0.510  0.06229210
 0.511  -0.06202457
 0.511  -0.21784901
 0.512  -0.33828333
 0.512  -0.37098768
 0.513  -0.45920509
 0.513  -0.57365818
 0.514  -0.63443952
 0.514  -0.63999492
 0.515  -0.60346789
 0.515  -0.64339509
 0.516  -0.73856960
 0.516  -0.58643190
 0.517  -0.49901492
 0.517  -0.31759796
 0.518  -0.29441523
 0.518  -0.30033156
 0.519  -0.15096810
 0.519  0.06268173
 0.520  0.40619810
 0.520  0.59446593
 0.521  0.77496326
 0.521  0.88504691
 0.522  0.97883178
 0.522  1.10546791
 0.523  1.09333671
 0.523  1.12868261
 0.524  1.27017725
 0.524  1.26864988
 0.525  1.25502474
 0.525  1.19117190
 0.526  1.20117221
 0.526  1.20345136
 0.527  1.06375526
 0.527  1.07273301
 0.528  0.98650427
 0.528  0.92948562
 0.529  0.80667236
 0.529  0.63721696
 0.530  0.39714516
 0.530  -0.01674829
 0.531  -0.00309817
 0.531  -0.21592116
 0.532  -0.29783061
 0.532  -0.34450739
 0.533  -0.45570798
 0.533  -0.58898216
 0.534  -0.60647960
 0.534  -0.70541188
 0.535  -0.63215973
 0.535  -0.56970684
 0.536  -0.63871599
 0.536  -0.55317127
 0.537  -0.48964235
 0.537  -0.37513350
 0.538  -0.26991754
 0.538  -0.11978013
 0.539  -0.11167918
 0.539  0.11331403
 0.540  0.30751158
 0.540  0.58848961
 0.541  0.70526807
 0.541  0.87955508
 0.542  0.98907864
 0.542  0.97485941
 0.543  1.18113123
 0.543  1.22483844
 0.544  1.34818403
 0.544  1.27060852
 0.545  1.33181433
 0.545  1.24359485
 0.546  1.25019302
 0.546  1.22379006
 0.547  1.17187891
 0.547  1.01236301
 0.548  0.90271937
 0.548  0.87586750
 0.549  0.69890811
 0.549  0.59259900
 0.550  0.36319361
 0.550  0.16138684
 0.551  -0.10200129
 0.551  -0.20499676
 0.552  -0.21734210
 0.552  -0.31039868
 0.553  -0.36139240
 0.553  -0.57943285
 0.554  -0.51323191
 0.554  -0.61062759
 0.555  -0.56531584
 0.555  -0.61725961
 0.556  -0.62313228
 0.556  -0.60058008
 0.557  -0.53731554
 0.557  -0.31113883
 0.558  -0.23553922
 0.558  -0.10493974
 0.559  -0.07995390
 0.559  0.04946566
 0.560  0.36333628
 0.560  0.68677142
 0.561  0.76545302
 0.561  0.81723819
 0.562  0.93951742
 0.563  0.95381829
 0.563  1.15590833
 0.564  1.19400556
 0.564  1.23656943
 0.565  1.28532247
 0.565  1.31259912
 0.566  1.32040280
 0.566  1.27484593
 0.567  1.15051318
 0.567  1.16210317
 0.568  1.05472737
 0.568  0.98537269
 0.569  0.96442012
 0.569  0.84019732
 0.570  0.69554707
 0.570  0.24531586
 0.571  -0.00797048
 0.571  -0.15916779
 0.572  -0.25236681
 0.572  -0.19970757
 0.573  -0.24132888
 0.573  -0.46986120
 0.574  -0.54021455
 0.574  -0.55725290
 0.575  -0.61282635
 0.575  -0.61584849
 0.576  -0.66190468
 0.576  -0.57557016
 0.577  -0.51906731
 0.577  -0.51898095
 0.578  -0.35375895
 0.578  -0.21439396
 0.579  -0.18111946
 0.579  -0.09213193
 0.580  0.11703353
 0.580  0.33339345
 0.581  0.62698899
 0.581  0.77867299
 0.582  0.90420954
 0.582  0.97661006
 0.583  1.03671649
 0.583  1.19319542
 0.584  1.13926841
 0.584  1.35408928
 0.585  1.34414622
 0.585  1.31898496
 0.586  1.29590391
 0.586  1.36331904
 0.587  1.39987891
 0.587  1.16883525
 0.588  1.08957049
 0.588  0.92720609
 0.589  0.79963994
 0.589  0.81940153
 0.590  0.60045723
 0.590  0.37528878
 0.591  0.10084745
 0.591  -0.14363079
 0.592  -0.15973255
 0.592  -0.20693199
 0.593  -0.33003518
 0.593  -0.39970414
 0.594  -0.50392529
 0.594  -0.68843974
 0.595  -0.60898874
 0.595  -0.66587811
 0.596  -0.55973224
 0.596  -0.56072518
 0.597  -0.55709695
 0.597  -0.47717272
 0.598  -0.23544670
 0.598  -0.27845125
 0.599  -0.18246437
 0.599  -0.02206611
 0.600  0.08422789
 0.600  0.45718594
 0.601  0.59755194
 0.601  0.80604527
 0.602  0.83840240
 0.602  0.99311551
 0.603  1.01192942
 0.603  1.10909356
 0.604  1.20901145
 0.604  1.30444837
 0.605  1.32618334
 0.605  1.36735905
 0.606  1.28666391
 0.606  1.26604401
 0.607  1.28877468
 0.607  1.13770602
 0.608  1.09416053
 0.608  0.95770971
 0.609  0.95649635
 0.609  0.84097077
 0.610  0.60531022
 0.610  0.46658807
 0.611  0.11092997
 0.611  -0.07908218
 0.612  -0.16419182
 0.612  -0.13765110
 0.613  -0.29903108
 0.613  -0.36213176
 0.614  -0.51345869
 0.614  -0.48916293
 0.615  -0.63767492
 0.615  -0.55736256
 0.616  -0.50734204
 0.616  -0.54698438
 0.617  -0.51008994
 0.617  -0.39484533
 0.618  -0.21136328
 0.618  -0.28848366
 0.619  -0.14341507
 0.619  -0.03137979
 0.620  0.15997131
 0.620  0.44189615
 0.621  0.48169512
 0.621  0.87295590
 0.622  0.91850067
 0.622  0.91953710
 0.623  1.14965778
 0.623  1.18855835
 0.624  1.31318645
 0.624  1.37592713
 0.625  1.26171233
 0.625  1.25762787
 0.625  1.38195900
 0.626  1.37318078
 0.626  1.31057304
 0.627  1.15820711
 0.627  1.08448046
 0.628  0.97794789
 0.628  0.95299562
 0.629  0.82190681
 0.629  0.70250553
 0.630  0.35865559
 0.630  0.06491582
 0.631  -0.04007339
 0.631  -0.20874717
 0.632  -0.22570984
 0.632  -0.25705120
 0.633  -0.44525490
 0.633  -0.46135195
 0.634  -0.59441950
 0.634  -0.58556040
 0.635  -0.59473437
 0.635  -0.62793346
 0.636  -0.60357420
 0.636  -0.52585031
 0.637  -0.46567263
 0.637  -0.17112753
 0.638  -0.07593806
 0.638  -0.18142606
 0.639  -0.04879673
 0.639  0.10144051
 0.640  0.33650533
 0.640  0.55651786
 0.641  0.89074060
 0.641  0.93826474
 0.642  0.97386079
 0.642  1.07490143
 0.643  1.11122247
 0.643  1.22347494
 0.644  1.32730358
 0.644  1.39312883
 0.645  1.29984649
 0.645  1.33960992
 0.646  1.32672658
 0.646  1.21384329
 0.647  1.19876189
 0.647  1.11175142
 0.648  0.99821235
 0.648  0.89743019
 0.649  0.82424747
 0.649  0.70839432
 0.650  0.36544279
 0.650  0.12451330
 0.651  -0.07113733
 0.651  -0.26343343
 0.652  -0.20833415
 0.652  -0.25272715
 0.653  -0.42446683
 0.653  -0.49091945
 0.654  -0.51951496
 0.654  -0.53266540
 0.655  -0.61118941
 0.655  -0.62057567
 0.656  -0.47378265
 0.656  -0.57493346
 0.657  -0.37028242
 0.657  -0.29796643
 0.658  -0.27564401
 0.658  -0.07805979
 0.659  -0.09225264
 0.659  0.18179773
 0.660  0.47886328
 0.660  0.63603779
 0.661  0.86828012
 0.661  0.96033556
 0.662  0.91551133
 0.662  1.00440758
 0.663  1.19651937
 0.663  1.40863726
 0.664  1.32158066
 0.664  1.33471917
 0.665  1.30787784
 0.665  1.39866537
 0.666  1.25215283
 0.666  1.28366177
 0.667  1.17887782
 0.667  1.07527123
 0.668  0.89027618
 0.668  0.96150805
 0.669  0.82537573
 0.669  0.75482002
 0.670  0.44803126
 0.670  0.19749120
 0.671  -0.02686137
 0.671  -0.11248115
 0.672  -0.13366393
 0.672  -0.26047914
 0.673  -0.26639434
 0.673  -0.45711771
 0.674  -0.51730209
 0.674  -0.50477634
 0.675  -0.56598650
 0.675  -0.56358234
 0.676  -0.44053938
 0.676  -0.45626275
 0.677  -0.39387405
 0.677  -0.26739609
 0.678  -0.15586324
 0.678  -0.12822567
 0.679  -0.06774607
 0.679  0.10440402
 0.680  0.41506211
 0.680  0.67351542
 0.681  0.84445448
 0.681  1.03270550
 0.682  0.93085715
 0.682  1.08634914
 0.683  1.21843861
 0.683  1.32740451
 0.684  1.36296477
 0.684  1.43680913
 0.685  1.38855291
 0.685  1.42424336
 0.686  1.39685117
 0.686  1.35764885
 0.687  1.27376398
 0.688  1.10119815
 0.688  1.01342517
 0.689  0.96977478
 0.689  0.87366233
 0.690  0.65646190
 0.690  0.37076190
 0.691  0.14391948
 0.691  -0.06529121
 0.692  -0.18609843
 0.692  -0.10572253
 0.693  -0.21756881
 0.693  -0.44027862
 0.694  -0.46016887
 0.694  -0.54029189
 0.695  -0.51861817
 0.695  -0.45620025
 0.696  -0.58743544
 0.696  -0.57225299
 0.697  -0.51222977
 0.697  -0.28909290
 0.698  -0.19080527
 0.698  -0.20009328
 0.699  -0.11455380
 0.699  -0.01496078
 0.700  0.17455748
 0.700  0.46604314
 0.701  0.66963018
 0.701  0.81255706
 0.702  0.97452483
 0.702  1.05984111
 0.703  1.06236474
 0.703  1.22803999
 0.704  1.32930989
 0.704  1.28148592
 0.705  1.35524016
 0.705  1.35134940
 0.706  1.42431425
 0.706  1.37742703
 0.707  1.36421328
 0.707  1.21465102
 0.708  0.99063604
 0.708  0.98400680
 0.709  0.91221557
 0.709  0.85752470
 0.710  0.73283872
 0.710  0.46339156
 0.711  0.08801710
 0.711  -0.04718038
 0.712  -0.05222888
 0.712  -0.21203086
 0.713  -0.17141584
 0.713  -0.33648656
 0.714  -0.51816944
 0.714  -0.53018365
 0.715  -0.47299131
 0.715  -0.54124061
 0.716  -0.54631760
 0.716  -0.54900464
 0.717  -0.53720197
 0.717  -0.34017259
 0.718  -0.20163670
 0.718  -0.10978039
 0.719  -0.02881947
 0.719  -0.04006189
 0.720  0.20005033
 0.720  0.41675063
 0.721  0.69525318
 0.721  0.83512440
 0.722  0.98450907
 0.722  1.07297807
 0.723  1.13236524
 0.723  1.25804282
 0.724  1.38702920
 0.724  1.37579708
 0.725  1.43691017
 0.725  1.36807263
 0.726  1.40212678
 0.726  1.39111018
 0.727  1.31535892
 0.727  1.28825310
 0.728  1.07516200
 0.728  1.00747925
 0.729  0.97365173
 0.729  0.92476039
 0.730  0.65453019
 0.730  0.43191522
 0.731  0.17318494
 0.731  0.02815488
 0.732  -0.02903158
 0.732  -0.04456111
 0.733  -0.18379076
 0.733  -0.28477996
 0.734  -0.48890646
 0.734  -0.47569299
 0.735  -0.53118827
 0.735  -0.45652613
 0.736  -0.54126188
 0.736  -0.51634979
 0.737  -0.44871721
 0.737  -0.32600344
 0.738  -0.29731890
 0.738  -0.14006418
 0.739  -0.12296272
 0.739  0.05399080
 0.740  0.22727706
 0.740  0.33757053
 0.741  0.65731606
 0.741  0.99965140
 0.742  1.03473612
 0.742  1.03923455
 0.743  1.04260755
 0.743  1.20160698
 0.744  1.34438220
 0.744  1.47846035
 0.745  1.37844348
 0.745  1.42398513
 0.746  1.34373948
 0.746  1.44689430
 0.747  1.29718036
 0.747  1.23813884
 0.748  1.12721372
 0.748  1.03536904
 0.749  0.93897763
 0.749  0.81511384
 0.750  0.73723248
 0.750  0.47153194
 0.750  0.19028287
 0.751  -0.06296775
 0.751  -0.07157752
 0.752  -0.13423509
 0.752  -0.16192745
 0.753  -0.32047326
 0.753  -0.47411658
 0.754  -0.45015809
 0.754  -0.61521367
 0.755  -0.45849882
 0.755  -0.45615682
 0.756  -0.50506583
 0.756  -0.51316792
 0.757  -0.33953633
 0.757  -0.31495683
 0.758  -0.18566601
 0.758  0.01154102
 0.759  0.01160668
 0.759  0.18370163
 0.760  0.49550831
 0.760  0.76173752
 0.761  0.88066778
 0.761  0.99428589
 0.762  1.07675461
 0.762  1.17379642
 0.763  1.12161914
 0.763  1.34739053
 0.764  1.35456981
 0.764  1.47027763
 0.765  1.43826525
 0.765  1.37237326
 0.766  1.49081842
 0.766  1.31978378
 0.767  1.34110392
 0.767  1.13065136
 0.768  1.04152061
 0.768  0.95141986
 0.769  0.88897051
 0.769  0.73348091
 0.770  0.45370591
 0.770  0.25381263
 0.771  0.03050741
 0.771  -0.12070623
 0.772  -0.17656334
 0.772  -0.22080326
 0.773  -0.31410052
 0.773  -0.41116884
 0.774  -0.49338826
 0.774  -0.50508280
 0.775  -0.50128564
 0.775  -0.39776023
 0.776  -0.46681393
 0.776  -0.42974625
 0.777  -0.31812400
 0.777  -0.24864347
 0.778  -0.18877169
 0.778  -0.07843493
 0.779  0.06278915
 0.779  0.18018430
 0.780  0.47597625
 0.780  0.72180660
 0.781  0.96392993
 0.781  1.04910416
 0.782  1.13975393
 0.782  1.14122221
 0.783  1.25848647
 0.783  1.36314225
 0.784  1.46938338
 0.784  1.36674238
 0.785  1.57859384
 0.785  1.42262567
 0.786  1.45548849
 0.786  1.32672450
 0.787  1.29618109
 0.787  1.27180283
 0.788  1.11760088
 0.788  0.99978180
 0.789  0.89854817
 0.789  0.66064539
 0.790  0.47132919
 0.790  0.22894763
 0.791  0.03585379
 0.791  -0.00749843
 0.792  -0.12705634
 0.792  -0.24608878
 0.793  -0.32192761
 0.793  -0.40239024
 0.794  -0.60907455
 0.794  -0.43806770
 0.795  -0.50356605
 0.795  -0.50358512
 0.796  -0.46834299
 0.796  -0.42469660
 0.797  -0.35177546
 0.797  -0.20820078
 0.798  -0.04012856
 0.798  -0.02106142
 0.799  0.03416784
 0.799  0.24091416
 0.800  0.51808223
 0.800  0.73097867
 0.801  0.91205725
 0.801  1.02306434
 0.802  1.02095999
 0.802  1.21428905
 0.803  1.26580695
 0.803  1.38176813
 0.804  1.47241300
 0.804  1.53031355
 0.805  1.44213288
 0.805  1.33642455
 0.806  1.48246955
 0.806  1.40129904
 0.807  1.36685518
 0.807  1.14699035
 0.808  1.09530443
 0.808  1.03209584
 0.809  0.90282220
 0.809  0.80244828
 0.810  0.50324872
 0.810  0.32160356
 0.811  -0.03546156
 0.811  -0.00932479
 0.812  -0.10786060
 0.813  -0.13426553
 0.813  -0.29315450
 0.814  -0.44199851
 0.814  -0.55513767
 0.815  -0.45839852
 0.815  -0.43814756
 0.816  -0.48468990
 0.816  -0.40789559
 0.817  -0.39324973
 0.817  -0.24419714
 0.818  -0.07750571
 0.818  -0.13612485
 0.819  -0.06387475
 0.819  0.03499580
 0.820  0.19464818
 0.820  0.53411721
 0.821  0.71972233
 0.821  0.95390185
 0.822  1.00673709
 0.822  1.04980965
 0.823  1.14580243
 0.823  1.29122487
 0.824  1.42050599
 0.824  1.47207089
 0.825  1.46213594
 0.825  1.44173652
 0.826  1.45482926
 0.826  1.42214858
 0.827  1.38195587
 0.827  1.29610352
 0.828  1.19014117
 0.828  1.05816295
 0.829  0.95451430
 0.829  0.99106664
 0.830  0.81353549
 0.830  0.53674992
 0.831  0.22668705
 0.831  0.03636644
 0.832  0.02648062
 0.832  -0.15970261
 0.833  -0.19804500
 0.833  -0.27008403
 0.834  -0.38842918
 0.834  -0.43716353
 0.835  -0.38253257
 0.835  -0.50228255
 0.836  -0.40573954
 0.836  -0.47113706
 0.837  -0.42970983
 0.837  -0.27359320
 0.838  -0.18193284
 0.838  -0.09211402
 0.839  -0.08443265
 0.839  0.03032031
 0.840  0.18848178
 0.840  0.48989005
 0.841  0.80544853
 0.841  0.98437607
 0.842  1.02651255
 0.842  1.03675000
 0.843  1.17290811
 0.843  1.30640300
 0.844  1.38903651
 0.844  1.43497174
 0.845  1.46268481
 0.845  1.55279347
 0.846  1.48912734
 0.846  1.47297963
 0.847  1.43258978
 0.847  1.38314526
 0.848  1.17387071
 0.848  1.13622899
 0.849  1.03979090
 0.849  1.10439205
 0.850  0.76617552
 0.850  0.53785182
 0.851  0.21687625
 0.851  0.06066319
 0.852  -0.01180040
 0.852  -0.10601028
 0.853  -0.11970786
 0.853  -0.28239892
 0.854  -0.51420875
 0.854  -0.48497680
 0.855  -0.45047115
 0.855  -0.38965190
 0.856  -0.37482106
 0.856  -0.42442043
 0.857  -0.36204289
 0.857  -0.26593075
 0.858  -0.24115221
 0.858  -0.02898488
 0.859  0.03229025
 0.859  0.10139269
 0.860  0.25961897
 0.860  0.57006918
 0.861  0.74676591
 0.861  0.92021119
 0.862  1.04884015
 0.862  1.09160527
 0.863  1.15557948
 0.863  1.33991071
 0.864  1.40800216
 0.864  1.50097898
 0.865  1.49006130
 0.865  1.46512598
 0.866  1.40838413
 0.866  1.54699241
 0.867  1.41474191
 0.867  1.30801629
 0.868  1.21161135
 0.868  1.08314451
 0.869  1.02304527
 0.869  0.94797538
 0.870  0.69956731
 0.870  0.52364097
 0.871  0.30066146
 0.871  0.08863904
 0.872  -0.05657710
 0.872  -0.01934262
 0.873  -0.21327559
 0.873  -0.19490464
 0.874  -0.36158786
 0.874  -0.49161939
 0.875  -0.46310459
 0.875  -0.40155952
 0.875  -0.38703291
 0.876  -0.45585318
 0.876  -0.37878907
 0.877  -0.35146642
 0.877  -0.16911721
 0.878  -0.03219253
 0.878  -0.02345964
 0.879  0.11515261
 0.879  0.23284727
 0.880  0.51238982
 0.880  0.80745154
 0.881  1.04655244
 0.881  1.11478399
 0.882  1.17478161
 0.882  1.20554781
 0.883  1.29169333
 0.883  1.34180715
 0.884  1.52475949
 0.884  1.33013015
 0.885  1.47587913
 0.885  1.41872771
 0.886  1.41677813
 0.886  1.41740938
 0.887  1.32223983
 0.887  1.28873961
 0.888  1.21111982
 0.888  1.10183498
 0.889  0.96568467
 0.889  0.76069678
 0.890  0.54619875
 0.890  0.28082676
 0.891  0.00725133
 0.891  -0.00093257
 0.892  -0.04647902
 0.892  -0.23254983
 0.893  -0.25180010
 0.893  -0.39558001
 0.894  -0.48748506
 0.894  -0.43223017
 0.895  -0.40729148
 0.895  -0.37114539
 0.896  -0.41574748
 0.896  -0.23516233
 0.897  -0.21999708
 0.897  -0.12229249
 0.898  0.03298469
 0.898  -0.05850043
 0.899  0.03516316
 0.899  0.34086640
 0.900  0.64879672
 0.900  0.82411160
 0.901  0.99158917
 0.901  0.98599783
 0.902  1.16076442
 0.902  1.20600328
 0.903  1.38705227
 0.903  1.52383022
 0.904  1.58375312
 0.904  1.55900815
 0.905  1.54124418
 0.905  1.58034273
 0.906  1.48309681
 0.906  1.29261522
 0.907  1.29981143
 0.907  1.34672219
 0.908  1.07211977
 0.908  1.08479082
 0.909  1.05858417
 0.909  0.77786819
 0.910  0.44874763
 0.910  0.28794645
 0.911  0.15204472
 0.911  0.04189111
 0.912  -0.10921191
 0.912  -0.15995995
 0.913  -0.21640934
 0.913  -0.42621831
 0.914  -0.31025786
 0.914  -0.37249174
 0.915  -0.38924415
 0.915  -0.39892333
 0.916  -0.41879333
 0.916  -0.35149730
 0.917  -0.33289949
 0.917  -0.05589839
 0.918  -0.00596471
 0.918  -0.01162862
 0.919  -0.01036618
 0.919  0.26547125
 0.920  0.54898856
 0.920  0.83888634
 0.921  0.95928733
 0.921  1.10155342
 0.922  1.14843139
 0.922  1.25585800
 0.923  1.35491629
 0.923  1.42455744
 0.924  1.49361838
 0.924  1.43380628
 0.925  1.56163816
 0.925  1.43476518
 0.926  1.45926410
 0.926  1.39781813
 0.927  1.25827838
 0.927  1.19503509
 0.928  1.09054901
 0.928  1.14026935
 0.929  0.99678052
 0.929  0.76241526
 0.930  0.59413302
 0.930  0.23553424
 0.931  0.12634526
 0.931  0.03674360
 0.932  -0.14414765
 0.932  -0.12754840
 0.933  -0.18544996
 0.933  -0.35340655
 0.934  -0.45031701
 0.934  -0.36864128
 0.935  -0.45912186
 0.935  -0.46655572
 0.936  -0.43330273
 0.936  -0.35745535
 0.937  -0.14818152
 0.938  -0.09906141
 0.938  -0.01899471
 0.939  0.04764225
 0.939  0.15794805
 0.940  0.22838108
 0.940  0.52573011
 0.941  0.80835540
 0.941  0.96550654
 0.942  1.11043669
 0.942  1.13036395
 0.943  1.24165348
 0.943  1.35384349
 0.944  1.47834586
 0.944  1.48211253
 0.945  1.47396262
 0.945  1.40978511
 0.946  1.62550777
 0.946  1.51918729
 0.947  1.42114709
 0.947  1.29392131
 0.948  1.16135875
 0.948  1.17009807
 0.949  1.09498342
 0.949  0.98070770
 0.950  0.80698722
 0.950  0.55647678
 0.951  0.39876729
 0.951  0.11082240
 0.952  -0.00645026
 0.952  -0.01059496
 0.953  -0.06458496
 0.953  -0.13214448
 0.954  -0.40683567
 0.954  -0.36525471
 0.955  -0.33961215
 0.955  -0.40258119
 0.956  -0.43131947
 0.956  -0.37775979
 0.957  -0.34464471
 0.957  -0.22362812
 0.958  -0.16006296
 0.958  -0.06465087
 0.959  0.05243111
 0.959  0.15894723
 0.960  0.30095673
 0.960  0.57432066
 0.961  0.82433702
 0.961  0.90458794
 0.962  1.05065744
 0.962  1.13049735
 0.963  1.33207081
 0.963  1.30645196
 0.964  1.53573394
 0.964  1.55416890
 0.965  1.52402522
 0.965  1.48901516
 0.966  1.44792932
 0.966  1.53130860
 0.967  1.41107844
 0.967  1.27958328
 0.968  1.24217364
 0.968  1.19756734
 0.969  1.07547005
 0.969  1.03087936
 0.970  0.83953420
 0.970  0.68464529
 0.971  0.37228264
 0.971  0.07401775
 0.972  0.03572115
 0.972  -0.02919958
 0.973  -0.13242455
 0.973  -0.20816607
 0.974  -0.29920154
 0.974  -0.21963187
 0.975  -0.36459991
 0.975  -0.42454518
 0.976  -0.39951879
 0.976  -0.33381464
 0.977  -0.37843210
 0.977  -0.22307972
 0.978  -0.05629583
 0.978  -0.01888889
 0.979  0.07953772
 0.979  0.10096074
 0.980  0.30197239
 0.980  0.49801406
 0.981  0.84656853
 0.981  1.07010645
 0.982  1.12267904
 0.982  1.22304406
 0.983  1.22197745
 0.983  1.36990774
 0.984  1.52281003
 0.984  1.44683708
 0.985  1.54324506
 0.985  1.46320985
 0.986  1.58893583
 0.986  1.54261141
 0.987  1.46305522
 0.987  1.33828982
 0.988  1.24371591
 0.988  1.20143042
 0.989  1.23806623
 0.989  0.95017855
 0.990  0.86203253
 0.990  0.58689258
 0.991  0.43644828
 0.991  0.18066466
 0.992  0.00459298
 0.992  0.03385003
 0.993  -0.13988224
 0.993  -0.16329299
 0.994  -0.40232190
 0.994  -0.38714533
 0.995  -0.36915723
 0.995  -0.31101682
 0.996  -0.43481349
 0.996  -0.34692771
 0.997  -0.30464211
 0.997  -0.13904525
 0.998  -0.15287417
 0.998  -0.01074256
 0.999  0.02682726
 0.999  0.10665402
 1.000  0.32207526
 1.000  0.56893082
 1.000  0.85131295
 1.001  1.03190920
 1.002  1.10332908
 1.002  1.16519099
 1.002  1.27926225
 1.003  1.47883855
 1.004  1.46591968
 1.004  1.61052344
 1.004  1.52151910
 1.005  1.58289640
 1.006  1.59030971
 1.006  1.48527796
 1.006  1.44443624
 1.007  1.34196822
 1.008  1.23394711
 1.008  1.16849363
 1.008  1.00812137
 1.009  1.07220278
 1.010  0.83984939
 1.010  0.51073215
 1.010  0.37731241
 1.011  0.12484067
 1.012  -0.01178479
 1.012  0.07616542
 1.012  -0.00381403
 1.013  -0.18982214
 1.014  -0.37265499
 1.014  -0.35555362
 1.014  -0.36377549
 1.015  -0.42981374
 1.016  -0.30168690
 1.016  -0.37505109
 1.016  -0.26424704
 1.017  -0.18351305
 1.018  -0.03322586
 1.018  -0.01335214
 1.018  0.00888225
 1.019  0.19515636
 1.020  0.25387440
 1.020  0.54451818
 1.020  0.84937048
 1.021  1.00061547
 1.022  1.12096036
 1.022  1.22529768
 1.022  1.19792746
 1.023  1.37653914
 1.024  1.50421911
 1.024  1.60022551
 1.024  1.52566806
 1.025  1.56469770
 1.026  1.58713151
 1.026  1.60649012
 1.026  1.54726741
 1.027  1.38982522
 1.028  1.33735153
 1.028  1.25238201
 1.028  1.09097086
 1.029  1.05739971
 1.030  0.90129783
 1.030  0.60037804
 1.030  0.41342077
 1.031  0.17741117
 1.032  0.00181300
 1.032  0.05317079
 1.032  -0.04489458
 1.033  -0.13606406
 1.034  -0.32479399
 1.034  -0.31279004
 1.034  -0.39509784
 1.035  -0.36630884
 1.036  -0.35991669
 1.036  -0.32234282
 1.036  -0.39520785
 1.037  -0.28307332
 1.038  -0.00286753
 1.038  0.00770383
 1.038  0.03092618
 1.039  0.16277860
 1.040  0.38033329
 1.040  0.59885833
 1.040  0.87816037
 1.041  0.99150820
 1.042  1.23119494
 1.042  1.23510122
 1.042  1.20145317
 1.043  1.45370757
 1.044  1.49458060
 1.044  1.49774484
 1.044  1.47759161
 1.045  1.53499359
 1.046  1.59111555
 1.046  1.61302663
 1.046  1.57200613
 1.047  1.46246391
 1.048  1.31189104
 1.048  1.19657722
 1.048  1.11172434
 1.049  1.01641605
 1.050  0.90908408
 1.050  0.52773948
 1.050  0.30462770
 1.051  0.18801281
 1.052  0.02983390
 1.052  0.09498235
 1.052  -0.03928039
 1.053  -0.19637546
 1.054  -0.38967295
 1.054  -0.30203703
 1.054  -0.35193648
 1.055  -0.23925076
 1.056  -0.33872735
 1.056  -0.31099814
 1.056  -0.32799933
 1.057  -0.14037861
 1.058  0.07011348
 1.058  -0.04071880
 1.058  0.08907189
 1.059  0.13097619
 1.060  0.38670740
 1.060  0.60544583
 1.060  0.89624998
 1.061  1.03478724
 1.062  1.12193124
 1.062  1.14479764
 1.063  1.39998375
 1.063  1.42992236
 1.063  1.46085193
 1.064  1.55471705
 1.065  1.57595661
 1.065  1.57594920
 1.065  1.61418906
 1.066  1.52376614
 1.067  1.54516570
 1.067  1.34402269
 1.067  1.31315029
 1.068  1.24295722
 1.069  1.13678448
 1.069  1.12579804
 1.069  0.82323792
 1.070  0.63346231
 1.071  0.28469003
 1.071  0.16313998
 1.071  0.12416789
 1.072  0.10050879
 1.073  -0.10442870
 1.073  -0.15139750
 1.073  -0.27839454
 1.074  -0.24773532
 1.075  -0.35844960
 1.075  -0.32501324
 1.075  -0.39930253
 1.076  -0.21003087
 1.077  -0.24289795
 1.077  -0.16539371
 1.077  -0.08436653
 1.078  0.04930858
 1.079  0.16423552
 1.079  0.20935399
 1.079  0.34915886
 1.080  0.65869141
 1.081  0.97179757
 1.081  1.02014814
 1.081  1.20306820
 1.082  1.22187619
 1.083  1.24198857
 1.083  1.41026503
 1.083  1.46307250
 1.084  1.47728369
 1.085  1.60455693
 1.085  1.60317258
 1.085  1.60480507
 1.086  1.59569216
 1.087  1.52117451
 1.087  1.39940209
 1.087  1.35178119
 1.088  1.29582858
 1.089  1.20803346
 1.089  1.18041157
 1.089  0.94102691
 1.090  0.62944002
 1.091  0.37119278
 1.091  0.19366977
 1.091  0.02502515
 1.092  0.06497580
 1.093  -0.06221272
 1.093  -0.14885579
 1.093  -0.26652120
 1.094  -0.36174711
 1.095  -0.31666811
 1.095  -0.23504415
 1.095  -0.29896756
 1.096  -0.33029244
 1.097  -0.23343659
 1.097  -0.16102507
 1.097  -0.02329546
 1.098  0.02804174
 1.099  0.21279495
 1.099  0.24631037
 1.099  0.39717410
 1.100  0.59785090
 1.101  0.84461734
 1.101  1.10406642
 1.101  1.04235025
 1.102  1.13794687
 1.103  1.26885344
 1.103  1.41663968
 1.103  1.44579368
 1.104  1.57202148
 1.105  1.56210979
 1.105  1.64620808
 1.105  1.58650900
 1.106  1.60744431
 1.107  1.55626206
 1.107  1.50537491
 1.107  1.39307682
 1.108  1.21323374
 1.109  1.19366698
 1.109  1.04314630
 1.109  0.91007490
 1.110  0.67254475
 1.111  0.36589849
 1.111  0.26295182
 1.111  0.15317643
 1.112  0.09313033
 1.113  -0.05128443
 1.113  -0.17632422
 1.113  -0.22889089
 1.114  -0.36493669
 1.115  -0.34144907
 1.115  -0.28470011
 1.115  -0.31533132
 1.116  -0.28802415
 1.117  -0.29516972
 1.117  -0.18315101
 1.117  0.03667180
 1.118  0.08769943
 1.119  0.10078714
 1.119  0.19452319
 1.119  0.44556345
 1.120  0.66943955
 1.121  0.95894175
 1.121  1.15810049
 1.121  1.18698028
 1.122  1.17150038
 1.123  1.35670380
 1.123  1.41786291
 1.123  1.46387486
 1.124  1.54967984
 1.125  1.62088396
 1.125  1.52436451
 1.125  1.63218159
 1.126  1.63842643
 1.127  1.52075906
 1.127  1.44082483
 1.127  1.26921501
 1.128  1.24423306
 1.129  1.21437935
 1.129  1.02275107
 1.129  0.94160272
 1.130  0.73403843
 1.131  0.48357491
 1.131  0.22552528
 1.131  0.15488411
 1.132  0.02694635
 1.133  -0.05428118
 1.133  -0.09884589
 1.133  -0.23206515
 1.134  -0.38943453
 1.135  -0.25537929
 1.135  -0.33917753
 1.135  -0.29308620
 1.136  -0.28080000
 1.137  -0.26345684
 1.137  -0.19494968
 1.137  0.02599024
 1.138  0.02575328
 1.139  0.20163001
 1.139  0.18960524
 1.139  0.35909142
 1.140  0.62262650
 1.141  0.87643277
 1.141  1.03831055
 1.141  1.26717542
 1.142  1.22641897
 1.143  1.23587651
 1.143  1.39540066
 1.143  1.62622757
 1.144  1.55999245
 1.145  1.71381337
 1.145  1.57366560
 1.145  1.57027205
 1.146  1.62782969
 1.147  1.52307571
 1.147  1.41457233
 1.147  1.38149637
 1.148  1.27504160
 1.149  1.13929897
 1.149  1.11964014
 1.149  0.95526282
 1.150  0.62754811
 1.151  0.44847719
 1.151  0.26890076
 1.151  0.10963001
 1.152  0.06913284
 1.153  0.01164324
 1.153  -0.06022791
 1.153  -0.22999262
 1.154  -0.35092212
 1.155  -0.37404015
 1.155  -0.29363599
 1.155  -0.24228500
 1.156  -0.25724516
 1.157  -0.26360375
 1.157  -0.07348179
 1.157  0.05357977
 1.158  0.14834741
 1.159  0.12468900
 1.159  0.13796637
 1.159  0.38010891
 1.160  0.64575536
 1.161  0.98662521
 1.161  1.04641806
 1.161  1.24224025
 1.162  1.24273340
 1.163  1.27267480
 1.163  1.49139260
 1.163  1.64042213
 1.164  1.67874310
 1.165  1.68070855
 1.165  1.57393512
 1.165  1.64404633
 1.166  1.54544708
 1.167  1.54732060
 1.167  1.49331152
 1.167  1.30060137
 1.168  1.25697155
 1.169  1.15963292
 1.169  1.11749440
 1.169  0.92030478
 1.170  0.66420695
 1.171  0.40299880
 1.171  0.21261522
 1.171  0.08445095
 1.172  0.14067370
 1.173  -0.01772803
 1.173  -0.13281510
 1.173  -0.21565286
 1.174  -0.22137889
 1.175  -0.24712666
 1.175  -0.23989264
 1.175  -0.31602113
 1.176  -0.27287165
 1.177  -0.17153489
 1.177  -0.09370972
 1.177  0.03431478
 1.178  0.07233339
 1.179  0.10742711
 1.179  0.15723052
 1.179  0.47969137
 1.180  0.75698039
 1.181  0.92508040
 1.181  1.08719669
 1.181  1.21542996
 1.182  1.26037095
 1.183  1.31894954
 1.183  1.46857280
 1.183  1.58956279
 1.184  1.67629702
 1.185  1.58877064
 1.185  1.62754917
 1.185  1.67372331
 1.186  1.57946778
 1.187  1.58466801
 1.187  1.48337660
 1.188  1.33598328
 1.188  1.25937064
 1.188  1.21801954
 1.189  1.10766819
 1.190  0.81411773
 1.190  0.68546234
 1.190  0.46303843
 1.191  0.24476198
 1.192  0.12987501
 1.192  0.15829918
 1.192  0.03348388
 1.193  -0.08492415
 1.194  -0.34642138
 1.194  -0.30087786
 1.194  -0.26546332
 1.195  -0.21864170
 1.196  -0.33384991
 1.196  -0.28026104
 1.196  -0.16957479
 1.197  -0.07749980
 1.198  -0.02726213
 1.198  0.11070174
 1.198  0.18655930
 1.199  0.15785335
 1.200  0.46674577
 1.200  0.75766565
 1.200  0.95791147
 1.201  1.16489691
 1.202  1.26758301
 1.202  1.33314691
 1.202  1.37583330
 1.203  1.42112086
 1.204  1.61577094
 1.204  1.60215703
 1.204  1.65538228
 1.205  1.71774834
 1.206  1.59028174
 1.206  1.63660101
 1.206  1.64896573
 1.207  1.45086033
 1.208  1.40819027
 1.208  1.24906992
 1.208  1.12622031
 1.209  1.19734569
 1.210  0.96479536
 1.210  0.69383112
 1.210  0.33387928
 1.211  0.27450201
 1.212  0.17128552
 1.212  0.18461392
 1.212  0.03945547
 1.213  -0.06659571
 1.214  -0.30270109
 1.214  -0.25241956
 1.214  -0.20049488
 1.215  -0.27823661
 1.216  -0.31958486
 1.216  -0.29412178
 1.216  -0.24666484
 1.217  -0.11237513
 1.218  0.18291298
 1.218  0.21423860
 1.218  0.11507769
 1.219  0.24281274
 1.220  0.36699674
 1.220  0.73531713
 1.220  0.90003630
 1.221  1.20630998
 1.222  1.26906162
 1.222  1.35301876
 1.222  1.35103406
 1.223  1.52361683
 1.224  1.58695468
 1.224  1.56244179
 1.224  1.64301925
 1.225  1.63525771
 1.226  1.64391743
 1.226  1.66099219
 1.226  1.60611566
 1.227  1.46160824
 1.228  1.35652130
 1.228  1.31431630
 1.228  1.26849756
 1.229  1.20712143
 1.230  0.85463172
 1.230  0.65109227
 1.230  0.43723830
 1.231  0.31112171
 1.232  0.12827264
 1.232  0.07710050
 1.232  0.11341853
 1.233  -0.12651621
 1.234  -0.25142759
 1.234  -0.27015668
 1.234  -0.28089268
 1.235  -0.24464321
 1.236  -0.28042894
 1.236  -0.28703010
 1.236  -0.21269715
 1.237  -0.06066541
 1.238  0.01864799
 1.238  0.12791255
 1.238  0.19617590
 1.239  0.27602784
 1.240  0.42136485
 1.240  0.69236511
 1.240  1.00868302
 1.241  1.07665343
 1.242  1.19260838
 1.242  1.41620598
 1.242  1.38051828
 1.243  1.51313153
 1.244  1.57715009
 1.244  1.58934933
 1.244  1.68536283
 1.245  1.64799627
 1.246  1.68279678
 1.246  1.62152483
 1.246  1.64433872
 1.247  1.46670962
 1.248  1.32222058
 1.248  1.35899431
 1.248  1.23762770
 1.249  1.23868703
 1.250  1.00107543
 1.250  0.69846187
 1.250  0.38628781
 1.251  0.22578337
 1.252  0.30696953
 1.252  0.13260773
 1.252  0.04467616
 1.253  -0.05422468
 1.254  -0.15862312
 1.254  -0.15995101
 1.254  -0.27596545
 1.255  -0.26765832
 1.256  -0.22719931
 1.256  -0.26811447
 1.256  -0.09601049
 1.257  -0.13630268
 1.258  0.09650675
 1.258  0.03818176
 1.258  0.18251910
 1.259  0.27023996
 1.260  0.51290034
 1.260  0.69027439
 1.260  1.04868387
 1.261  1.07899471
 1.262  1.21415645
 1.262  1.24066798
 1.262  1.38377733
 1.263  1.53799376
 1.264  1.54979227
 1.264  1.76429271
 1.264  1.70626982
 1.265  1.68592269
 1.266  1.61742713
 1.266  1.66513261
 1.266  1.59579134
 1.267  1.45561797
 1.268  1.48114694
 1.268  1.24921522
 1.268  1.18696261
 1.269  1.08380623
 1.270  0.99978318
 1.270  0.73689734
 1.270  0.45892771
 1.271  0.30703103
 1.272  0.20144948
 1.272  0.16657780
 1.272  0.09222882
 1.273  -0.13635430
 1.274  -0.06863560
 1.274  -0.26234497
 1.274  -0.18870614
 1.275  -0.19428325
 1.276  -0.34499531
 1.276  -0.24899110
 1.276  -0.19487276
 1.277  -0.12301135
 1.278  0.06368971
 1.278  0.04619001
 1.278  0.15979537
 1.279  0.21543133
 1.280  0.58030768
 1.280  0.65789718
 1.280  1.04217758
 1.281  1.21678666
 1.282  1.33621505
 1.282  1.39510069
 1.282  1.42198695
 1.283  1.49959881
 1.284  1.52546659
 1.284  1.68210187
 1.284  1.76176747
 1.285  1.59662524
 1.286  1.66330483
 1.286  1.69428003
 1.286  1.63211574
 1.287  1.43872888
 1.288  1.37748360
 1.288  1.21120362
 1.288  1.20594601
 1.289  1.24131479
 1.290  0.96869162
 1.290  0.79223801
 1.290  0.49551584
 1.291  0.31400410
 1.292  0.16606913
 1.292  0.18334483
 1.292  0.02158204
 1.293  -0.08247215
 1.294  -0.22711779
 1.294  -0.17574896
 1.294  -0.24219085
 1.295  -0.16124478
 1.296  -0.26422515
 1.296  -0.16081890
 1.296  -0.19178192
 1.297  -0.13891132
 1.298  0.05777663
 1.298  0.18909773
 1.298  0.23678676
 1.299  0.23376597
 1.300  0.55746020
 1.300  0.77757662
 1.300  0.91943599
 1.301  1.17133829
 1.302  1.27674571
 1.302  1.25983144
 1.302  1.41899826
 1.303  1.55109743
 1.304  1.61047814
 1.304  1.68485602
 1.304  1.70762165
 1.305  1.62493323
 1.306  1.73510914
 1.306  1.73251005
 1.306  1.65084083
 1.307  1.47777216
 1.308  1.44613832
 1.308  1.21604263
 1.308  1.25264664
 1.309  1.20331611
 1.310  0.93108349
 1.310  0.82328313
 1.310  0.52354903
 1.311  0.32210301
 1.312  0.26240660
 1.312  0.25331778
 1.313  0.13123133
 1.313  -0.10418772
 1.313  -0.07652821
 1.314  -0.21717570
 1.315  -0.25153750
 1.315  -0.23392007
 1.315  -0.19527623
 1.316  -0.28442360
 1.317  -0.15475862
 1.317  -0.00359721
 1.317  0.07462769
 1.318  0.14331567
 1.319  0.19581542
 1.319  0.29000392
 1.319  0.51716142
 1.320  0.82797370
 1.321  0.99903283
 1.321  1.12570758
 1.321  1.27057540
 1.322  1.34514326
 1.323  1.45733464
 1.323  1.54657899
 1.323  1.70871053
 1.324  1.75196336
 1.325  1.70172833
 1.325  1.65735992
 1.325  1.60583567
 1.326  1.60177126
 1.327  1.57587252
 1.327  1.58230896
 1.327  1.41186418
 1.328  1.27332276
 1.329  1.32385651
 1.329  1.20039765
 1.329  0.92194399
 1.330  0.82335000
 1.331  0.41686571
 1.331  0.26354199
 1.331  0.13309154
 1.332  0.18648236
 1.333  -0.00480020
 1.333  -0.03860710
 1.333  -0.15096583
 1.334  -0.17575054
 1.335  -0.13627573
 1.335  -0.10682852
 1.335  -0.26641978
 1.336  -0.16525911
 1.337  -0.24887646
 1.337  0.02618080
 1.337  0.13150084
 1.338  0.08009619
 1.339  0.20895880
 1.339  0.22644485
 1.339  0.43160524
 1.340  0.74998441
 1.341  1.07017584
 1.341  1.12842507
 1.341  1.28409509
 1.342  1.37853185
 1.343  1.50927973
 1.343  1.60375063
 1.343  1.67322748
 1.344  1.74222934
 1.345  1.69457720
 1.345  1.66464098
 1.345  1.65971771
 1.346  1.72589401
 1.347  1.66704282
 1.347  1.41743874
 1.347  1.42826048
 1.348  1.45309510
 1.349  1.34930619
 1.349  1.19705838
 1.349  0.98694644
 1.350  0.86708949
 1.351  0.49721608
 1.351  0.36918516
 1.351  0.18112599
 1.352  0.13013194
 1.353  0.05527996
 1.353  -0.00486812
 1.353  -0.13399958
 1.354  -0.23219882
 1.355  -0.14910718
 1.355  -0.26896430
 1.355  -0.14025462
 1.356  -0.15807065
 1.357  -0.15448938
 1.357  0.00043800
 1.357  0.08281981
 1.358  0.13484877
 1.359  0.26848947
 1.359  0.27707786
 1.359  0.57241853
 1.360  0.72092010
 1.361  1.07866406
 1.361  1.21102434
 1.361  1.24267740
 1.362  1.34383955
 1.363  1.52456562
 1.363  1.57994824
 1.363  1.67013305
 1.364  1.64363568
 1.365  1.75081492
 1.365  1.69486654
 1.365  1.69369588
 1.366  1.69840382
 1.367  1.63088981
 1.367  1.61385696
 1.367  1.40007463
 1.368  1.35074021
 1.369  1.25008619
 1.369  1.29944547
 1.369  1.07476138
 1.370  0.80074105
 1.371  0.57636445
 1.371  0.23937109
 1.371  0.25193958
 1.372  0.22726161
 1.373  0.06639644
 1.373  -0.01976289
 1.373  -0.14316469
 1.374  -0.09479059
 1.375  -0.23285681
 1.375  -0.10973589
 1.375  -0.28484918
 1.376  -0.18911467
 1.377  -0.22247495
 1.377  -0.06549852
 1.377  0.07688014
 1.378  0.25796658
 1.379  0.28076651
 1.379  0.26216461
 1.379  0.43030009
 1.380  0.67492605
 1.381  0.99962789
 1.381  1.17498801
 1.381  1.32640668
 1.382  1.40497776
 1.383  1.49317218
 1.383  1.56196933
 1.383  1.71275169
 1.384  1.71344763
 1.385  1.72316835
 1.385  1.67897664
 1.385  1.71520355
 1.386  1.75877809
 1.387  1.62142466
 1.387  1.55552029
 1.387  1.44786538
 1.388  1.31892889
 1.389  1.24451368
 1.389  1.18104949
 1.389  0.97835992
 1.390  0.77156799
 1.391  0.46149035
 1.391  0.23900802
 1.391  0.23378877
 1.392  0.13363784
 1.393  0.10583216
 1.393  -0.08997668
 1.393  -0.13603861
 1.394  -0.13222872
 1.395  -0.16124180
 1.395  -0.18105170
 1.395  -0.25751908
 1.396  -0.20408403
 1.397  -0.19342636
 1.397  0.00119490
 1.397  0.09788391
 1.398  0.14072470
 1.399  0.22160626
 1.399  0.35924066
 1.399  0.50517457
 1.400  0.79931635
 1.401  1.05158866
 1.401  1.21339922
 1.401  1.29366791
 1.402  1.30053529
 1.403  1.45344911
 1.403  1.55441529
 1.403  1.56141044
 1.404  1.68973521
 1.405  1.69590531
 1.405  1.70794472
 1.405  1.72902459
 1.406  1.76537582
 1.407  1.65563594
 1.407  1.69703069
 1.407  1.42477063
 1.408  1.32685223
 1.409  1.34270594
 1.409  1.16789921
 1.409  0.95297549
 1.410  0.73645136
 1.411  0.61514688
 1.411  0.33224832
 1.411  0.27494180
 1.412  0.25720399
 1.413  0.12509756
 1.413  0.00761768
 1.413  -0.12890695
 1.414  -0.16396474
 1.415  -0.21684567
 1.415  -0.12962746
 1.415  -0.18791521
 1.416  -0.11680075
 1.417  -0.09458630
 1.417  -0.03079511
 1.417  0.08656645
 1.418  0.25663440
 1.419  0.27017533
 1.419  0.24529319
 1.419  0.41661730
 1.420  0.83428956
 1.421  1.04052559
 1.421  1.28473153
 1.421  1.34453760
 1.422  1.32275928
 1.423  1.39466480
 1.423  1.50967158
 1.423  1.62108924
 1.424  1.66899653
 1.425  1.65172533
 1.425  1.70522285
 1.425  1.73126667
 1.426  1.78366766
 1.427  1.62567053
 1.427  1.54646736
 1.427  1.43429790
 1.428  1.39029048
 1.429  1.29346909
 1.429  1.27177294
 1.429  1.04674988
 1.430  0.80280450
 1.431  0.51885063
 1.431  0.34399683
 1.431  0.25367536
 1.432  0.25258554
 1.433  0.08039364
 1.433  0.03251890
 1.433  -0.16992675
 1.434  -0.15493507
 1.435  -0.20470619
 1.435  -0.14745749
 1.435  -0.19062873
 1.436  -0.17226390
 1.437  -0.22300199
 1.437  0.00123191
 1.438  0.15666571
 1.438  0.20645604
 1.438  0.24058407
 1.439  0.42232167
 1.440  0.60830851
 1.440  0.71694078
 1.440  1.00840833
 1.441  1.17547591
 1.442  1.36644897
 1.442  1.31408677
 1.442  1.54321623
 1.443  1.58816356
 1.444  1.74732548
 1.444  1.81213439
 1.444  1.81535020
 1.445  1.74070902
 1.446  1.70203119
 1.446  1.64456696
 1.446  1.65589032
 1.447  1.64730823
 1.448  1.46560016
 1.448  1.30616649
 1.448  1.25499641
 1.449  1.13983940
 1.450  1.07644421
 1.450  0.81393612
 1.450  0.47132900
 1.451  0.27640473
 1.452  0.30454463
 1.452  0.23626863
 1.452  0.11699186
 1.453  -0.03768972
 1.454  -0.05775903
 1.454  -0.16344333
 1.454  -0.08176935
 1.455  -0.09087125
 1.456  -0.07085437
 1.456  -0.03027483
 1.456  -0.17642338
 1.457  -0.02707662
 1.458  0.20332844
 1.458  0.23857636
 1.458  0.18351719
 1.459  0.35645488
 1.460  0.51525262
 1.460  0.80718530
 1.460  1.00989934
 1.461  1.24850238
 1.462  1.26040054
 1.462  1.41998762
 1.462  1.52689317
 1.463  1.59260172
 1.464  1.65319005
 1.464  1.61044940
 1.464  1.75490080
 1.465  1.70510259
 1.466  1.78241404
 1.466  1.72437254
 1.466  1.60353541
 1.467  1.61508635
 1.468  1.48060952
 1.468  1.36746778
 1.468  1.30856962
 1.469  1.24772997
 1.470  1.13733663
 1.470  0.92023910
 1.470  0.61271076
 1.471  0.25672816
 1.472  0.24089362
 1.472  0.19711019
 1.472  0.13140701
 1.473  0.09168783
 1.474  -0.12078990
 1.474  -0.22470356
 1.474  -0.18848231
 1.475  -0.15675412
 1.476  -0.18919551
 1.476  -0.21824603
 1.476  -0.12538385
 1.477  -0.07904595
 1.478  0.03454107
 1.478  0.17475993
 1.478  0.23689965
 1.479  0.28486373
 1.480  0.55839609
 1.480  0.78943068
 1.480  1.04653667
 1.481  1.21234605
 1.482  1.28113658
 1.482  1.44489952
 1.482  1.43230036
 1.483  1.50487924
 1.484  1.66562224
 1.484  1.70033396
 1.484  1.80663662
 1.485  1.65232263
 1.486  1.75243623
 1.486  1.73563970
 1.486  1.76546511
 1.487  1.55632908
 1.488  1.53711787
 1.488  1.39911573
 1.488  1.29522281
 1.489  1.28953428
 1.490  1.05647926
 1.490  0.80740887
 1.490  0.57124199
 1.491  0.31565868
 1.492  0.17844367
 1.492  0.18282552
 1.492  0.07690708
 1.493  -0.05540216
 1.494  -0.13122761
 1.494  -0.06885174
 1.494  -0.22626090
 1.495  -0.21322429
 1.496  -0.20441371
 1.496  -0.15800417
 1.496  -0.12170358
 1.497  0.02513557
 1.498  0.13137186
 1.498  0.20145880
 1.498  0.37524170
 1.499  0.42909370
 1.500  0.45877341
 1.500  0.76064598
 1.500  1.08606383
 1.501  1.14960077
 1.502  1.37466584
 1.502  1.38062132
 1.502  1.45018620
 1.503  1.59612255
 1.504  1.71098031
 1.504  1.86915307
 1.504  1.69004236
 1.505  1.81257869
 1.506  1.74771079
 1.506  1.76039393
 1.506  1.71374099
 1.507  1.63818046
 1.508  1.50087043
 1.508  1.45081331
 1.508  1.36989699
 1.509  1.29970553
 1.510  1.05418616
 1.510  0.78366635
 1.510  0.57029594
 1.511  0.41722530
 1.512  0.26730327
 1.512  0.23297381
 1.512  0.21765117
 1.513  0.06180058
 1.514  -0.12325503
 1.514  -0.14481752
 1.514  -0.10606945
 1.515  -0.20236135
 1.516  -0.13630081
 1.516  -0.09256299
 1.516  -0.15944708
 1.517  -0.05187385
 1.518  0.18114839
 1.518  0.24214816
 1.518  0.14085908
 1.519  0.33481288
 1.520  0.52915262
 1.520  0.78036752
 1.520  1.19912702
 1.521  1.25488963
 1.522  1.33601669
 1.522  1.44476834
 1.522  1.48829775
 1.523  1.53526804
 1.524  1.72048616
 1.524  1.76547940
 1.524  1.88101463
 1.525  1.74989732
 1.526  1.81650533
 1.526  1.80125646
 1.526  1.71769997
 1.527  1.64569759
 1.528  1.53385632
 1.528  1.40967579
 1.528  1.36712939
 1.529  1.24293702
 1.530  1.13042801
 1.530  0.80384196
 1.530  0.57821860
 1.531  0.33666126
 1.532  0.23695722
 1.532  0.16556196
 1.532  0.10943723
 1.533  0.08855364
 1.534  -0.17050726
 1.534  -0.21396815
 1.534  -0.03973250
 1.535  -0.09095053
 1.536  -0.14746471
 1.536  -0.18802338
 1.536  -0.00172043
 1.537  -0.03502395
 1.538  0.01232243
 1.538  0.16023339
 1.538  0.31984592
 1.539  0.38925350
 1.540  0.59130422
 1.540  0.83406803
 1.540  1.18597823
 1.541  1.17125890
 1.542  1.37749715
 1.542  1.39178837
 1.542  1.46214387
 1.543  1.63705634
 1.544  1.74808469
 1.544  1.77424562
 1.544  1.80316367
 1.545  1.83509271
 1.546  1.70903084
 1.546  1.81122502
 1.546  1.78324540
 1.547  1.57898647
 1.548  1.43063490
 1.548  1.36229516
 1.548  1.36142765
 1.549  1.28284685
 1.550  1.03764953
 1.550  0.76721152
 1.550  0.60271335
 1.551  0.32934296
 1.552  0.29855403
 1.552  0.22927948
 1.552  0.11576670
 1.553  0.01033526
 1.554  -0.10881613
 1.554  -0.14733930
 1.554  -0.17549602
 1.555  -0.13736893
 1.556  -0.05234120
 1.556  -0.09105079
 1.556  -0.10806878
 1.557  -0.01720118
 1.558  0.14780790
 1.558  0.27634782
 1.558  0.24928629
 1.559  0.28960558
 1.560  0.55802214
 1.560  0.74765783
 1.560  1.11597438
 1.561  1.21204599
 1.562  1.41383632
 1.562  1.50678734
 1.563  1.40866668
 1.563  1.65287907
 1.563  1.64121884
 1.564  1.77896025
 1.565  1.87085230
 1.565  1.84930170
 1.565  1.75404469
 1.566  1.82882148
 1.567  1.66721011
 1.567  1.50108396
 1.567  1.55767074
 1.568  1.43046668
 1.569  1.43476114
 1.569  1.26139356
 1.569  1.12868742
 1.570  0.78367469
 1.571  0.56976661
 1.571  0.41173695
 1.571  0.43814775
 1.572  0.21081932
 1.573  0.21737325
 1.573  -0.00308481
 1.573  -0.08352900
 1.574  -0.23383907
 1.575  -0.08446989
 1.575  -0.20896696
 1.575  -0.13242890
 1.576  -0.12402289
 1.577  0.00369976
 1.577  0.07693104
 1.577  0.22035015
 1.578  0.22589459
 1.579  0.29419082
 1.579  0.45009308
 1.579  0.56540529
 1.580  0.83860108
 1.581  1.03714392
 1.581  1.25506951
 1.581  1.34355404
 1.582  1.47381054
 1.583  1.60410661
 1.583  1.67918626
 1.583  1.71468403
 1.584  1.82977668
 1.585  1.70588269
 1.585  1.75459598
 1.585  1.79131161
 1.586  1.81714547
 1.587  1.71116849
 1.587  1.71411061
 1.587  1.53396064
 1.588  1.45440842
 1.589  1.41989223
 1.589  1.25404113
 1.589  1.03029106
 1.590  0.78373810
 1.591  0.58272620
 1.591  0.34677751
 1.591  0.28838599
 1.592  0.13162029
 1.593  0.12236688
 1.593  0.07878945
 1.593  -0.00094080
 1.594  -0.10331598
 1.595  -0.12323160
 1.595  -0.13209488
 1.595  -0.05833115
 1.596  -0.10859192
 1.597  -0.01197978
 1.597  0.05589766
 1.597  0.15417143
 1.598  0.22679157
 1.599  0.32211258
 1.599  0.35726808
 1.599  0.61249545
 1.600  0.85681733
 1.601  1.17158491
 1.601  1.18861271
 1.601  1.45808139
 1.602  1.47626029
 1.603  1.49848919
 1.603  1.63686004
 1.603  1.74752859
 1.604  1.85705954
 1.605  1.86172277
 1.605  1.83607453
 1.605  1.87601045
 1.606  1.81588085
 1.607  1.68739961
 1.607  1.66030958
 1.607  1.42551873
 1.608  1.42451123
 1.609  1.38712165
 1.609  1.30764748
 1.609  1.10408247
 1.610  0.88832765
 1.611  0.60314240
 1.611  0.38854707
 1.611  0.30093659
 1.612  0.30437887
 1.613  0.15675353
 1.613  0.15949394
 1.613  -0.12016824
 1.614  -0.16536389
 1.615  -0.07619499
 1.615  -0.13289818
 1.615  -0.09911957
 1.616  -0.04943051
 1.617  -0.05537742
 1.617  0.08892902
 1.617  0.16705556
 1.618  0.30145161
 1.619  0.24348299
 1.619  0.41050505
 1.619  0.56957951
 1.620  0.78439763
 1.621  0.99489836
 1.621  1.26020348
 1.621  1.40372923
 1.622  1.44496120
 1.623  1.58168799
 1.623  1.63045043
 1.623  1.81175213
 1.624  1.80937208
 1.625  1.74804548
 1.625  1.72722224
 1.625  1.85052756
 1.626  1.81997096
 1.627  1.77349117
 1.627  1.56110671
 1.627  1.50713358
 1.628  1.48494060
 1.629  1.35866794
 1.629  1.29730522
 1.629  1.14085393
 1.630  0.86536023
 1.631  0.58852405
 1.631  0.42349405
 1.631  0.30430916
 1.632  0.24524664
 1.633  0.08334065
 1.633  0.04971435
 1.633  -0.02482817
 1.634  -0.07944366
 1.635  -0.06164683
 1.635  -0.15318098
 1.635  -0.07563998
 1.636  -0.08652341
 1.637  0.02563474
 1.637  0.13840420
 1.637  0.14792283
 1.638  0.34536101
 1.639  0.28230919
 1.639  0.47527363
 1.639  0.53558481
 1.640  0.76312651
 1.641  1.09005883
 1.641  1.31613720
 1.641  1.38839191
 1.642  1.41644426
 1.643  1.59206988
 1.643  1.64300042
 1.643  1.68266015
 1.644  1.80648738
 1.645  1.88159447
 1.645  1.82250628
 1.645  1.80416359
 1.646  1.76184256
 1.647  1.71671184
 1.647  1.66040081
 1.647  1.62008640
 1.648  1.36287792
 1.649  1.30853095
 1.649  1.27898660
 1.649  1.01506047
 1.650  0.82463027
 1.651  0.62686618
 1.651  0.53217621
 1.651  0.25655563
 1.652  0.24309743
 1.653  0.15364889
 1.653  0.09727813
 1.653  0.04764953
 1.654  -0.06315289
 1.655  -0.10458963
 1.655  -0.03864312
 1.655  -0.05006097
 1.656  -0.10414052
 1.657  0.02870661
 1.657  0.09580760
 1.657  0.21725742
 1.658  0.21326551
 1.659  0.32301412
 1.659  0.42819098
 1.659  0.58395110
 1.660  0.82314663
 1.661  1.15776392
 1.661  1.38852528
 1.661  1.44447939
 1.662  1.43813029
 1.663  1.59814567
 1.663  1.61830948
 1.663  1.79961722
 1.664  1.79907654
 1.665  1.82237031
 1.665  1.73949251
 1.665  1.81377662
 1.666  1.85132163
 1.667  1.69923426
 1.667  1.68223385
 1.667  1.53790960
 1.668  1.40019426
 1.669  1.42917537
 1.669  1.27604552
 1.669  1.08990606
 1.670  0.82620217
 1.671  0.65175208
 1.671  0.47765918
 1.671  0.41586253
 1.672  0.27217887
 1.673  0.19929098
 1.673  0.12963469
 1.673  -0.05478967
 1.674  -0.12454274
 1.675  -0.06268089
 1.675  -0.05466939
 1.675  0.00631465
 1.676  -0.10712634
 1.677  0.01158986
 1.677  0.12293007
 1.677  0.28519375
 1.678  0.30759165
 1.679  0.33768741
 1.679  0.51412729
 1.679  0.62744580
 1.680  0.83732369
 1.681  1.17731365
 1.681  1.22276609
 1.681  1.38329869
 1.682  1.39925881
 1.683  1.53306933
 1.683  1.68103471
 1.683  1.73238971
 1.684  1.80450726
 1.685  1.92262234
 1.685  1.84466329
 1.685  1.79653600
 1.686  1.79157788
 1.687  1.76191377
 1.687  1.72988247
 1.688  1.54220037
 1.688  1.45443729
 1.688  1.37274288
 1.689  1.31898136
 1.690  1.05323214
 1.690  0.91696492
 1.690  0.60974296
 1.691  0.41609920
 1.692  0.28960759
 1.692  0.32526406
 1.692  0.25482593
 1.693  0.04201290
 1.694  -0.00622452
 1.694  -0.09224162
 1.694  -0.12382242
 1.695  -0.05790380
 1.696  -0.05175801
 1.696  -0.06310812
 1.696  -0.15940796
 1.697  0.09810408
 1.698  0.17819019
 1.698  0.35161965
 1.698  0.35028163
 1.699  0.43173013
 1.700  0.61881384
 1.700  0.79921643
 1.700  1.11424992
 1.701  1.27771659
 1.702  1.46609008
 1.702  1.51180846
 1.702  1.50318522
 1.703  1.63156744
 1.704  1.77255235
 1.704  1.89392140
 1.704  1.77131874
 1.705  1.92282406
 1.706  1.78667805
 1.706  1.80406814
 1.706  1.80981373
 1.707  1.59268644
 1.708  1.46295195
 1.708  1.51599673
 1.708  1.46630218
 1.709  1.37821403
 1.710  1.00919355
 1.710  0.90481803
 1.710  0.55646100
 1.711  0.43869840
 1.712  0.25641612
 1.712  0.23540753
 1.712  0.26760724
 1.713  0.06962923
 1.714  0.03816070
 1.714  -0.11205697
 1.714  -0.17865328
 1.715  -0.17904280
 1.716  -0.01530460
 1.716  -0.02028495
 1.716  -0.03666282
 1.717  0.10742672
 1.718  0.17777242
 1.718  0.22917788
 1.718  0.39853909
 1.719  0.35248598
 1.720  0.58651862
 1.720  0.86985484
 1.720  1.15078293
 1.721  1.24144566
 1.722  1.51105397
 1.722  1.46799771
 1.722  1.53529671
 1.723  1.58601761
 1.724  1.69304778
 1.724  1.83501198
 1.724  1.83578481
 1.725  1.86561203
 1.726  1.79069661
 1.726  1.76915525
 1.726  1.73653506
 1.727  1.67822206
 1.728  1.50012781
 1.728  1.42470961
 1.728  1.35747301
 1.729  1.34789520
 1.730  1.10823078
 1.730  0.86553460
 1.730  0.63180737
 1.731  0.60191044
 1.732  0.33181094
 1.732  0.34613697
 1.732  0.29609369
 1.733  0.04318291
 1.734  0.00030328
 1.734  -0.04804403
 1.734  -0.01834894
 1.735  -0.07239623
 1.736  0.01866687
 1.736  -0.12035061
 1.736  -0.01061020
 1.737  0.05443830
 1.738  0.24539305
 1.738  0.34772820
 1.738  0.33119550
 1.739  0.45887039
 1.740  0.61502621
 1.740  0.85124465
 1.740  1.18793569
 1.741  1.31123418
 1.742  1.52422510
 1.742  1.54259937
 1.742  1.50792511
 1.743  1.71188977
 1.744  1.72747396
 1.744  1.89544309
 1.744  1.77027061
 1.745  1.82839691
 1.746  1.89374104
 1.746  1.81450366
 1.746  1.77670317
 1.747  1.67733201
 1.748  1.64742505
 1.748  1.46907790
 1.748  1.41645406
 1.749  1.26844468
 1.750  1.17545292
 1.750  0.94445554
 1.750  0.68192134
 1.751  0.53033923
 1.752  0.36336690
 1.752  0.28678573
 1.752  0.24921528
 1.753  0.24928081
 1.754  -0.00524381
 1.754  -0.03007239
 1.754  -0.05899319
 1.755  0.00349459
 1.756  -0.01161019
 1.756  -0.08367628
 1.756  0.03764695
 1.757  0.11287131
 1.758  0.24638204
 1.758  0.31097053
 1.758  0.29162118
 1.759  0.53329620
 1.760  0.62827188
 1.760  0.83971177
 1.760  1.00055254
 1.761  1.28724109
 1.762  1.33533000
 1.762  1.50481643
 1.762  1.57631515
 1.763  1.69230906
 1.764  1.72959412
 1.764  1.85727029
 1.764  1.91946179
 1.765  1.80343075
 1.766  1.88803496
 1.766  1.79368780
 1.766  1.79344146
 1.767  1.70181895
 1.768  1.47338439
 1.768  1.58605983
 1.768  1.46322089
 1.769  1.31805631
 1.770  1.25474706
 1.770  0.93625411
 1.770  0.65172827
 1.771  0.45656014
 1.772  0.38607467
 1.772  0.20551273
 1.772  0.18291330
 1.773  0.15454719
 1.774  -0.07174864
 1.774  -0.08675446
 1.774  -0.02552311
 1.775  -0.10036519
 1.776  -0.05203687
 1.776  -0.01474189
 1.776  0.09562721
 1.777  0.07718436
 1.778  0.31516155
 1.778  0.33031353
 1.778  0.37040896
 1.779  0.38823860
 1.780  0.61062813
 1.780  0.90328018
 1.780  1.15807607
 1.781  1.26853698
 1.782  1.41709899
 1.782  1.53430896
 1.782  1.54225598
 1.783  1.66732453
 1.784  1.81092186
 1.784  1.92131909
 1.784  1.81364978
 1.785  1.78306326
 1.786  1.77921994
 1.786  1.83858835
 1.786  1.77469824
 1.787  1.79920055
 1.788  1.43977799
 1.788  1.52131436
 1.788  1.42810451
 1.789  1.40510255
 1.790  1.20610767
 1.790  0.88282081
 1.790  0.77384345
 1.791  0.51373601
 1.792  0.40908957
 1.792  0.30312181
 1.792  0.13361195
 1.793  0.08290398
 1.794  -0.10715936
 1.794  0.01165010
 1.794  -0.07135415
 1.795  -0.09958957
 1.796  -0.07803525
 1.796  -0.11182005
 1.796  -0.09712350
 1.797  0.02040969
 1.798  0.18684748
 1.798  0.27518683
 1.798  0.38347641
 1.799  0.46093616
 1.800  0.72853260
 1.800  0.89602414
 1.800  1.06064661
 1.801  1.30278637
 1.802  1.41425017
 1.802  1.52600769
 1.802  1.49311375
 1.803  1.66054334
 1.804  1.75059198
 1.804  1.90031954
 1.804  1.91745177
 1.805  1.92134686
 1.806  1.87990143
 1.806  1.86975049
 1.806  1.78385551
 1.807  1.70301071
 1.808  1.52826510
 1.808  1.48934124
 1.808  1.39772206
 1.809  1.43224165
 1.810  1.28163843
 1.810  0.89345276
 1.810  0.62802256
 1.811  0.47190232
 1.812  0.41580815
 1.812  0.36892282
 1.813  0.19172008
 1.813  0.08071647
 1.813  -0.05896636
 1.814  -0.04312813
 1.815  -0.09609313
 1.815  -0.05339737
 1.815  -0.05549521
 1.816  0.06708918
 1.817  0.07350782
 1.817  0.07312200
 1.817  0.25780947
 1.818  0.37355230
 1.819  0.36091991
 1.819  0.45732447
 1.819  0.62722914
 1.820  0.96779381
 1.821  1.19163178
 1.821  1.38002249
 1.821  1.50178190
 1.822  1.46710535
 1.823  1.58835331
 1.823  1.57602227
 1.823  1.87486051
 1.824  1.89909296
 1.825  1.92085362
 1.825  1.85876061
 1.825  1.92487359
 1.826  1.80702481
 1.827  1.77342194
 1.827  1.66908141
 1.827  1.51950595
 1.828  1.48754802
 1.829  1.48184162
 1.829  1.34181777
 1.829  1.24935077
 1.830  0.95073935
 1.831  0.66614234
 1.831  0.47663500
 1.831  0.34111403
 1.832  0.42113008
 1.833  0.22047644
 1.833  0.10603988
 1.833  0.02854180
 1.834  0.00594092
 1.835  -0.05091285
 1.835  -0.09671533
 1.835  0.00725630
 1.836  0.01200756
 1.837  0.02592597
 1.837  0.10286592
 1.837  0.24854434
 1.838  0.30271838
 1.839  0.42431954
 1.839  0.46580728
 1.839  0.65229016
 1.840  0.92802302
 1.841  1.15573062
 1.841  1.29981872
 1.841  1.49501493
 1.842  1.47398385
 1.843  1.72375912
 1.843  1.68735934
 1.843  1.88120760
 1.844  1.87347885
 1.845  1.94332129
 1.845  1.88861808
 1.845  1.83719004
 1.846  1.82471810
 1.847  1.78460195
 1.847  1.77576403
 1.847  1.63714824
 1.848  1.51589090
 1.849  1.43729413
 1.849  1.26036361
 1.849  1.24500383
 1.850  0.86353004
 1.851  0.65557263
 1.851  0.49764392
 1.851  0.34227632
 1.852  0.28588649
 1.853  0.21832521
 1.853  0.10403234
 1.853  0.03432509
 1.854  0.01324360
 1.855  -0.09118269
 1.855  -0.11141320
 1.855  -0.00588545
 1.856  -0.06240078
 1.857  0.07080967
 1.857  0.14898308
 1.857  0.17836135
 1.858  0.40069378
 1.859  0.38733978
 1.859  0.41218949
 1.859  0.67385735
 1.860  0.95011658
 1.861  1.24760069
 1.861  1.39633421
 1.861  1.42769535
 1.862  1.48971364
 1.863  1.47656799
 1.863  1.70305572
 1.863  1.79124758
 1.864  1.92446578
 1.865  1.83673039
 1.865  1.82877423
 1.865  1.86851997
 1.866  1.82520094
 1.867  1.78344042
 1.867  1.71135962
 1.867  1.61413784
 1.868  1.57632181
 1.869  1.43427735
 1.869  1.37817921
 1.869  1.05614027
 1.870  0.84322690
 1.871  0.65237516
 1.871  0.52670609
 1.871  0.44829084
 1.872  0.36204762
 1.873  0.19711005
 1.873  0.17650577
 1.873  -0.04827493
 1.874  0.01639463
 1.875  -0.03344179
 1.875  -0.08383493
 1.875  0.03174381
 1.876  -0.01634565
 1.877  0.13646776
 1.877  0.05636368
 1.877  0.28220654
 1.878  0.35664160
 1.879  0.43758341
 1.879  0.46494660
 1.879  0.68652734
 1.880  0.84721543
 1.881  1.19059657
 1.881  1.30221184
 1.881  1.42861527
 1.882  1.48573123
 1.883  1.55650789
 1.883  1.67679091
 1.883  1.86637773
 1.884  1.86556377
 1.885  1.89602111
 1.885  1.91736658
 1.885  1.89026473
 1.886  1.87919052
 1.887  1.83862768
 1.887  1.72122288
 1.887  1.52122617
 1.888  1.58127622
 1.889  1.47923244
 1.889  1.45830809
 1.889  1.22222369
 1.890  0.84200526
 1.891  0.71196384
 1.891  0.51418237
 1.891  0.41953863
 1.892  0.26825054
 1.893  0.20331914
 1.893  0.19145129
 1.893  0.02703220
 1.894  -0.04885259
 1.895  -0.05466275
 1.895  -0.11699218
 1.895  0.03738627
 1.896  0.02690760
 1.897  0.00877837
 1.897  0.26467861
 1.897  0.23006913
 1.898  0.25015667
 1.899  0.29545044
 1.899  0.40931595
 1.899  0.57564622
 1.900  0.90014923
 1.901  1.19120872
 1.901  1.42576186
 1.901  1.47017803
 1.902  1.51347079
 1.903  1.61590867
 1.903  1.76843397
 1.903  1.80564847
 1.904  1.95058412
 1.905  1.92397967
 1.905  1.80567230
 1.905  1.91288744
 1.906  1.85460868
 1.907  1.82944864
 1.907  1.66781134
 1.907  1.62976541
 1.908  1.65069199
 1.909  1.52485088
 1.909  1.38286279
 1.909  1.25242483
 1.910  0.94735610
 1.911  0.70133290
 1.911  0.45732512
 1.911  0.38552185
 1.912  0.34876270
 1.913  0.28459244
 1.913  0.16461419
 1.913  0.00689977
 1.914  0.04083796
 1.915  0.04904176
 1.915  0.04599538
 1.915  0.01908289
 1.916  0.02576341
 1.917  0.05807098
 1.917  0.09790013
 1.917  0.28981210
 1.918  0.29923450
 1.919  0.46432168
 1.919  0.58101989
 1.919  0.59114432
 1.920  0.94998269
 1.921  1.13505844
 1.921  1.41966462
 1.921  1.44744804
 1.922  1.42084206
 1.923  1.55982141
 1.923  1.75230379
 1.923  1.82443122
 1.924  1.91852053
 1.925  1.92606940
 1.925  1.87459766
 1.925  1.99231547
 1.926  1.85552738
 1.927  1.81317827
 1.927  1.66773618
 1.927  1.63024665
 1.928  1.50851631
 1.929  1.49075814
 1.929  1.25872536
 1.929  1.20694437
 1.930  0.97611148
 1.931  0.66455531
 1.931  0.54688579
 1.931  0.37889163
 1.932  0.22465860
 1.933  0.24779240
 1.933  0.13101857
 1.933  0.01355666
 1.934  0.08218014
 1.935  -0.02502766
 1.935  -0.12040322
 1.935  -0.00641525
 1.936  -0.01673930
 1.937  0.14004916
 1.937  0.12158804
 1.938  0.33083887
 1.938  0.36101907
 1.938  0.42460758
 1.939  0.56777435
 1.940  0.69060757
 1.940  0.96076225
 1.940  1.20555795
 1.941  1.38965613
 1.942  1.53364329
 1.942  1.47432951
 1.942  1.55321398
 1.943  1.68431127
 1.944  1.97952772
 1.944  1.88614533
 1.944  1.89516348
 1.945  1.80907790
 1.946  1.94152949
 1.946  1.87059480
 1.946  1.81971648
 1.947  1.72349278
 1.948  1.62064576
 1.948  1.52366327
 1.948  1.49771343
 1.949  1.31988359
 1.950  1.19340983
 1.950  0.92425064
 1.950  0.77492439
 1.951  0.51867588
 1.952  0.38914597
 1.952  0.37096797
 1.952  0.23290178
 1.953  0.19378670
 1.954  0.08499806
 1.954  0.03553900
 1.954  -0.04227764
 1.955  -0.02621114
 1.956  0.02094845
 1.956  -0.01890241
 1.956  0.02434742
 1.957  0.07985374
 1.958  0.32497948
 1.958  0.37080686
 1.958  0.40101503
 1.959  0.56130249
 1.960  0.71121700
 1.960  0.92347407
 1.960  1.12215893
 1.961  1.43559970
 1.962  1.53652214
 1.962  1.53922759
 1.962  1.67219471
 1.963  1.74453806
 1.964  1.85615727
 1.964  1.90127701
 1.964  1.87536729
 1.965  1.88844740
 1.966  1.93289559
 1.966  1.80662125
 1.966  1.82091223
 1.967  1.81547471
 1.968  1.63836271
 1.968  1.61733545
 1.968  1.39042095
 1.969  1.31447995
 1.970  1.20369979
 1.970  0.94803762
 1.970  0.75475944
 1.971  0.57304363
 1.972  0.38221222
 1.972  0.38861285
 1.972  0.32019288
 1.973  0.19762397
 1.974  0.05172142
 1.974  0.05839411
 1.974  -0.04776960
 1.975  0.02685660
 1.976  0.09343875
 1.976  -0.04361302
 1.976  0.02022849
 1.977  0.17332494
 1.978  0.27772235
 1.978  0.36152454
 1.978  0.40254364
 1.979  0.52690420
 1.980  0.63978758
 1.980  0.94096792
 1.980  1.20570984
 1.981  1.33158758
 1.982  1.43995695
 1.982  1.58439163
 1.982  1.74480130
 1.983  1.72766473
 1.984  1.88511763
 1.984  1.92125092
 1.984  1.82326799
 1.985  1.92028514
 1.986  1.88966232
 1.986  1.95715238
 1.986  1.80643106
 1.987  1.81127588
 1.988  1.68611402
 1.988  1.59964378
 1.988  1.45951556
 1.989  1.44524724
 1.990  1.21571691
 1.990  1.01391442
 1.990  0.67539546
 1.991  0.57965021
 1.992  0.42438115
 1.992  0.42383867
 1.992  0.19037195
 1.993  0.12887601
 1.994  0.02825101
 1.994  -0.00337226
 1.994  -0.05115907
 1.995  -0.02969687
 1.996  0.09337156
 1.996  0.01145434
 1.996  0.06090550
 1.997  0.11423096
 1.998  0.29591739
 1.998  0.28692802
 1.998  0.37857173
 1.999  0.47650023
 2.000  0.66101576
 2.000  0.94182036
 2.001  1.19566888
 2.001  1.36656725
 2.002  1.47378298
 2.002  1.45988154
 2.002  1.66562168
 2.003  1.76216707
 2.003  1.82575439
 2.004  1.94224770
 2.005  1.99945422
 2.005  1.83187545
 2.006  1.89987547
 2.006  1.91073875
 2.006  1.90373237
 2.007  1.72412605
 2.007  1.68978996
 2.008  1.58511813
 2.009  1.47149462
 2.009  1.35255563
 2.010  1.20601627
 2.010  0.93500234
 2.010  0.71754057
 2.011  0.48844433
 2.011  0.38888000
 2.012  0.44765136
 2.013  0.36946444
 2.013  0.25874091
 2.014  0.07700716
 2.014  0.01002658
 2.014  -0.00031682
 2.015  -0.05511152
 2.015  -0.04828154
 2.016  -0.02071436
 2.017  0.09645573
 2.017  0.14688076
 2.018  0.30567774
 2.018  0.37183953
 2.018  0.40205927
 2.019  0.56302886
 2.019  0.75141688
 2.020  0.95619528
 2.021  1.17888799
 2.021  1.39605671
 2.022  1.44831379
 2.022  1.41618270
 2.022  1.56180003
 2.023  1.62143029
 2.023  1.89833316
 2.024  1.86082009
 2.025  1.85982438
 2.025  1.79718737
 2.026  1.89252694
 2.026  1.89356761
 2.026  1.92521463
 2.027  1.73605570
 2.027  1.64280955
 2.028  1.44335540
 2.029  1.52638525
 2.029  1.35660549
 2.030  1.22999202
 2.030  0.96280869
 2.030  0.74331957
 2.031  0.50499141
 2.031  0.44596660
 2.032  0.28082046
 2.033  0.30957422
 2.033  0.12923847
 2.034  0.17212155
 2.034  0.04126401
 2.034  -0.00429835
 2.035  -0.02542868
 2.035  -0.05404841
 2.036  -0.05176154
 2.037  0.06285313
 2.037  0.18963313
 2.038  0.19867179
 2.038  0.30900357
 2.038  0.47988813
 2.039  0.63065892
 2.039  0.65449072
 2.040  0.99332735
 2.041  1.19540879
 2.041  1.37062202
 2.042  1.52088360
 2.042  1.53085045
 2.042  1.67942377
 2.043  1.67680656
 2.043  1.93722583
 2.044  1.92484310
 2.045  1.87802843
 2.045  1.95500738
 2.046  1.90438658
 2.046  1.86040419
 2.046  1.81182547
 2.047  1.84054565
 2.047  1.61820106
 2.048  1.48374081
 2.049  1.50674887
 2.049  1.29637378
 2.050  1.20520574
 2.050  0.88344401
 2.050  0.57683502
 2.051  0.54338198
 2.051  0.44378452
 2.052  0.38133134
 2.053  0.27050698
 2.053  0.12940493
 2.054  0.05967966
 2.054  0.08889572
 2.054  0.04765417
 2.055  0.00681965
 2.055  -0.03284574
 2.056  -0.02863832
 2.057  0.13747340
 2.057  0.14361627
 2.058  0.32058397
 2.058  0.35984138
 2.058  0.39781672
 2.059  0.47469652
 2.059  0.79295544
 2.060  0.94765009
 2.061  1.15238950
 2.061  1.33425706
 2.062  1.46927078
 2.062  1.54604592
 2.063  1.63618226
 2.063  1.74440864
 2.063  1.91175335
 2.064  1.93805529
 2.064  1.89540976
 2.065  1.95380763
 2.066  1.88662390
 2.066  1.91432274
 2.067  1.85751013
 2.067  1.75733813
 2.067  1.55771935
 2.068  1.65005555
 2.068  1.44135995
 2.069  1.48615781
 2.070  1.18820818
 2.070  0.87677172
 2.071  0.68596470
 2.071  0.47381734
 2.071  0.38410786
 2.072  0.33150532
 2.072  0.29914695
 2.073  0.13096109
 2.074  0.24541253
 2.074  0.01776214
 2.075  0.08467073
 2.075  -0.03625199
 2.075  -0.07631449
 2.076  -0.05423209
 2.076  0.14263750
 2.077  0.24925048
 2.078  0.15895963
 2.078  0.42962099
 2.079  0.50066441
 2.079  0.55749521
 2.079  0.70307276
 2.080  1.01906422
 2.080  1.20737383
 2.081  1.41209700
 2.082  1.52529089
 2.082  1.61861820
 2.083  1.63828120
 2.083  1.84332642
 2.083  1.93851599
 2.084  2.00016017
 2.084  1.90175564
 2.085  1.86297745
 2.086  1.93083405
 2.086  1.95737249
 2.087  1.80274782
 2.087  1.75000979
 2.087  1.57590337
 2.088  1.59185430
 2.088  1.44964198
 2.089  1.30713006
 2.090  1.13960976
 2.090  0.91429357
 2.091  0.73814440
 2.091  0.52717001
 2.091  0.49202190
 2.092  0.36440294
 2.092  0.34008345
 2.093  0.14659293
 2.094  0.04429299
 2.094  -0.00441788
 2.095  0.02518489
 2.095  0.06600800
 2.095  -0.00614474
 2.096  0.06190127
 2.096  0.09581950
 2.097  0.28644840
 2.098  0.29771339
 2.098  0.30339869
 2.099  0.41260990
 2.099  0.45393576
 2.099  0.68855559
 2.100  0.98339224
 2.100  1.27802797
 2.101  1.30385569
 2.102  1.48095741
 2.102  1.44080849
 2.103  1.65927220
 2.103  1.72349498
 2.103  1.87076101
 2.104  1.91779662
 2.104  1.98395879
 2.105  1.91251720
 2.106  1.94979082
 2.106  1.93910880
 2.107  1.85726080
 2.107  1.81871271
 2.107  1.65146566
 2.108  1.59557363
 2.108  1.48977516
 2.109  1.48754689
 2.110  1.22518794
 2.110  0.93281404
 2.111  0.62323493
 2.111  0.55184551
 2.111  0.42746854
 2.112  0.32890461
 2.112  0.25626252
 2.113  0.20699709
 2.114  0.06084152
 2.114  0.04842317
 2.115  0.02758398
 2.115  -0.08313005
 2.115  -0.00902614
 2.116  0.08494520
 2.116  0.04910748
 2.117  0.17437696
 2.118  0.27920333
 2.118  0.47281287
 2.119  0.47907841
 2.119  0.55582501
 2.119  0.76096860
 2.120  1.00745078
 2.120  1.23178912
 2.121  1.39784981
 2.122  1.56242725
 2.122  1.62803932
 2.123  1.62103114
 2.123  1.81165823
 2.123  1.88038153
 2.124  1.99655995
 2.124  1.97266808
 2.125  1.87733192
 2.126  1.92119067
 2.126  1.86954182
 2.127  1.96091633
 2.127  1.73524543
 2.127  1.67558592
 2.128  1.49920585
 2.128  1.52040074
 2.129  1.32863198
 2.130  1.31043762
 2.130  0.98454504
 2.131  0.85259651
 2.131  0.39672739
 2.131  0.49551836
 2.132  0.43355024
 2.132  0.27088492
 2.133  0.18020909
 2.134  0.15666321
 2.134  -0.03960497
 2.135  0.00666660
 2.135  0.05365035
 2.135  0.01473046
 2.136  0.04463837
 2.136  0.08173091
 2.137  0.15595397
 2.138  0.32942779
 2.138  0.45129798
 2.139  0.35285088
 2.139  0.43489413
 2.139  0.74239555
 2.140  1.03915882
 2.140  1.26987224
 2.141  1.38799438
 2.142  1.48184616
 2.142  1.56929443
 2.143  1.63971183
 2.143  1.81047915
 2.143  1.90614603
 2.144  1.84087677
 2.144  1.93152300
 2.145  1.96481968
 2.146  2.02116557
 2.146  1.87772622
 2.147  1.83795291
 2.147  1.78573409
 2.147  1.68173569
 2.148  1.59151320
 2.148  1.60977944
 2.149  1.32099265
 2.150  1.22623963
 2.150  1.01905437
 2.151  0.76815563
 2.151  0.45434438
 2.151  0.46605575
 2.152  0.33570304
 2.152  0.28163783
 2.153  0.15014376
 2.154  0.03989780
 2.154  0.06548745
 2.155  0.03710985
 2.155  0.09524818
 2.155  0.05355507
 2.156  -0.00993624
 2.156  0.07434363
 2.157  0.19717438
 2.158  0.36197966
 2.158  0.33351301
 2.159  0.47015719
 2.159  0.46547735
 2.159  0.68762840
 2.160  0.98824586
 2.160  1.27220842
 2.161  1.53550943
 2.162  1.48594648
 2.162  1.57975616
 2.163  1.62394071
 2.163  1.77309791
 2.163  1.85143750
 2.164  2.00308768
 2.164  1.97388951
 2.165  1.92733197
 2.166  1.94416934
 2.166  2.00090551
 2.167  1.89730642
 2.167  1.73020013
 2.167  1.61659746
 2.168  1.52164127
 2.168  1.51043892
 2.169  1.36023203
 2.170  1.25814332
 2.170  0.94315622
 2.171  0.74826338
 2.171  0.63600297
 2.171  0.45795836
 2.172  0.30160643
 2.172  0.36392695
 2.173  0.23153997
 2.174  0.04137763
 2.174  0.01025118
 2.175  0.07826321
 2.175  -0.04405460
 2.175  0.09937892
 2.176  0.04840617
 2.176  0.07704868
 2.177  0.21404423
 2.178  0.36646091
 2.178  0.34043683
 2.179  0.42382701
 2.179  0.45770183
 2.179  0.71174920
 2.180  0.98384735
 2.180  1.20385518
 2.181  1.48329123
 2.182  1.48771527
 2.182  1.60760620
 2.183  1.72596164
 2.183  1.69431509
 2.183  1.94652108
 2.184  1.97436342
 2.184  1.86627088
 2.185  1.89694276
 2.186  1.93345487
 2.186  1.97943623
 2.187  1.89664843
 2.187  1.78709451
 2.188  1.62792681
 2.188  1.64587808
 2.188  1.46181032
 2.189  1.50867337
 2.189  1.22173834
 2.190  1.07649590
 2.191  0.75419441
 2.191  0.52008387
 2.192  0.44187742
 2.192  0.42898422
 2.192  0.29843103
 2.193  0.09696915
 2.193  0.06245095
 2.194  0.05184405
 2.195  0.02145595
 2.195  0.04504581
 2.196  -0.03981720
 2.196  0.04102413
 2.196  0.04023415
 2.197  0.15990719
 2.197  0.32422110
 2.198  0.40099493
 2.199  0.41416830
 2.199  0.57586885
 2.200  0.73035249
 2.200  0.93879801
 2.200  1.28035190
 2.201  1.33540850
 2.201  1.51470586
 2.202  1.55686103
 2.203  1.68764993
 2.203  1.87881330
 2.204  1.93997560
 2.204  1.91472358
 2.204  1.88363318
 2.205  1.88635660
 2.205  1.89701002
 2.206  1.91343432
 2.207  1.98861053
 2.207  1.84328909
 2.208  1.73876736
 2.208  1.63388161
 2.208  1.48695501
 2.209  1.46545085
 2.209  1.29800841
 2.210  0.94730961
 2.211  0.74003813
 2.211  0.54222895
 2.212  0.34236089
 2.212  0.38242682
 2.212  0.32444830
 2.213  0.20213732
 2.213  0.14390267
 2.214  -0.02703268
 2.215  -0.01928068
 2.215  -0.04459528
 2.216  -0.01229585
 2.216  0.00491717
 2.216  0.16789089
 2.217  0.16101983
 2.217  0.38906009
 2.218  0.44422157
 2.219  0.44864562
 2.219  0.47624243
 2.220  0.77818674
 2.220  0.97706457
 2.220  1.16311889
 2.221  1.43297927
 2.221  1.51875829
 2.222  1.53331810
 2.223  1.58504129
 2.223  1.73997510
 2.224  1.97154435
 2.224  1.96800324
 2.224  1.94393313
 2.225  1.97537095
 2.225  1.93722622
 2.226  1.91142591
 2.227  1.85421769
 2.227  1.75744078
 2.228  1.56622493
 2.228  1.56948769
 2.228  1.55323033
 2.229  1.51135213
 2.229  1.35278394
 2.230  0.98492795
 2.231  0.69111641
 2.231  0.52735780
 2.232  0.49619686
 2.232  0.31845445
 2.232  0.26721267
 2.233  0.20130481
 2.233  0.08846924
 2.234  0.04903610
 2.235  0.01188819
 2.235  -0.03796112
 2.236  0.04309766
 2.236  0.05242264
 2.236  0.09183712
 2.237  0.24846508
 2.237  0.36827783
 2.238  0.44918096
 2.239  0.46092659
 2.239  0.54372410
 2.240  0.68587900
 2.240  0.96314384
 2.240  1.27642182
 2.241  1.36593618
 2.241  1.53332216
 2.242  1.56665301
 2.243  1.67243035
 2.243  1.80801336
 2.244  1.79720624
 2.244  1.92834257
 2.244  1.92936078
 2.245  1.93386533
 2.245  1.99587817
 2.246  1.97216761
 2.247  1.84189212
 2.247  1.78034137
 2.248  1.62574832
 2.248  1.56694399
 2.248  1.55911665
 2.249  1.44917951
 2.249  1.19230959
 2.250  0.87927643
 2.251  0.76705244
 2.251  0.54612227
 2.252  0.56607975
 2.252  0.29880642
 2.252  0.32228583
 2.253  0.13211017
 2.253  0.07537262
 2.254  0.07806331
 2.255  0.06906725
 2.255  0.11340183
 2.256  0.02406840
 2.256  0.03769807
 2.256  0.12752557
 2.257  0.26914963
 2.257  0.36104818
 2.258  0.50363525
 2.259  0.41204727
 2.259  0.56333815
 2.260  0.78989631
 2.260  1.06348690
 2.260  1.31173209
 2.261  1.39874219
 2.261  1.46169653
 2.262  1.59461472
 2.263  1.65902192
 2.263  1.78264468
 2.264  1.84789404
 2.264  2.02724088
 2.264  1.95823914
 2.265  1.96324589
 2.265  1.89028756
 2.266  1.90694961
 2.267  1.92108315
 2.267  1.78405973
 2.268  1.75447661
 2.268  1.55598667
 2.268  1.47082534
 2.269  1.37652867
 2.269  1.22440789
 2.270  0.95031801
 2.271  0.70769893
 2.271  0.48096571
 2.272  0.55292152
 2.272  0.40344098
 2.272  0.25456242
 2.273  0.14169674
 2.273  0.11487897
 2.274  0.07435785
 2.275  0.01869551
 2.275  0.14237737
 2.276  0.06131222
 2.276  0.05797091
 2.276  0.12099351
 2.277  0.26731386
 2.277  0.27190706
 2.278  0.40389319
 2.279  0.48555831
 2.279  0.61674407
 2.280  0.67864784
 2.280  1.04458638
 2.280  1.12476315
 2.281  1.43504306
 2.281  1.49239636
 2.282  1.52732134
 2.283  1.68398143
 2.283  1.73994074
 2.284  1.92187513
 2.284  2.03163219
 2.284  2.03430974
 2.285  1.98184484
 2.285  1.96054163
 2.286  1.93407859
 2.287  1.93169216
 2.287  1.72332104
 2.288  1.66847771
 2.288  1.63808287
 2.288  1.54891033
 2.289  1.44237866
 2.289  1.22082641
 2.290  0.94988381
 2.291  0.82305521
 2.291  0.52293501
 2.292  0.49266966
 2.292  0.39887738
 2.292  0.27417699
 2.293  0.30610618
 2.293  0.03441347
 2.294  0.04658283
 2.295  0.07227970
 2.295  -0.04059822
 2.296  0.08918660
 2.296  -0.05847753
 2.296  0.07655753
 2.297  0.15597879
 2.297  0.36645818
 2.298  0.34538966
 2.299  0.35201453
 2.299  0.52930782
 2.300  0.81477100
 2.300  0.92675884
 2.300  1.15122243
 2.301  1.46262789
 2.301  1.54354582
 2.302  1.54047667
 2.303  1.60360315
 2.303  1.80945152
 2.304  1.86148458
 2.304  1.92868005
 2.304  1.98448528
 2.305  1.95612018
 2.305  1.91412137
 2.306  1.87011132
 2.307  1.90778607
 2.307  1.72587734
 2.308  1.66521778
 2.308  1.61747692
 2.308  1.58464752
 2.309  1.34595090
 2.309  1.22807833
 2.310  0.96326176
 2.311  0.76802601
 2.311  0.49231992
 2.312  0.42250161
 2.312  0.46169645
 2.313  0.34410644
 2.313  0.17872116
 2.313  0.11436916
 2.314  0.02714395
 2.314  0.01467041
 2.315  0.06408427
 2.316  0.06828772
 2.316  0.09602448
 2.317  0.03755593
 2.317  0.13227784
 2.317  0.29436968
 2.318  0.42506324
 2.318  0.54279210
 2.319  0.52938925
 2.320  0.74626185
 2.320  1.02486402
 2.321  1.27223739
 2.321  1.49467033
 2.321  1.59288135
 2.322  1.66149881
 2.322  1.64847018
 2.323  1.75202905
 2.324  1.83688207
 2.324  2.12074114
 2.325  1.96247014
 2.325  2.00117987
 2.325  1.85874214
 2.326  1.89740666
 2.326  1.90770345
 2.327  1.79588009
 2.328  1.69936513
 2.328  1.56499792
 2.329  1.58991057
 2.329  1.35129589
 2.329  1.29773809
 2.330  0.99904566
 2.330  0.71529178
 2.331  0.50738226
 2.332  0.55764501
 2.332  0.43819471
 2.333  0.28739614
 2.333  0.18554507
 2.333  -0.02266361
 2.334  -0.04049342
 2.334  0.04612325
 2.335  -0.00150032
 2.336  0.12107380
 2.336  0.04909696
 2.337  0.18829522
 2.337  0.20509515
 2.337  0.26921793
 2.338  0.41300518
 2.338  0.43625294
 2.339  0.52524336
 2.340  0.71619706
 2.340  0.99033153
 2.341  1.26447183
 2.341  1.37187405
 2.341  1.49984928
 2.342  1.60714182
 2.342  1.76039670
 2.343  1.77399359
 2.344  1.94203296
 2.344  2.00739194
 2.345  1.92144519
 2.345  1.89781305
 2.345  1.97420767
 2.346  1.98386005
 2.346  1.87935675
 2.347  1.78727433
 2.348  1.67833911
 2.348  1.53950798
 2.349  1.52653119
 2.349  1.41640047
 2.349  1.14327788
 2.350  0.98174911
 2.350  0.72743731
 2.351  0.59622792
 2.352  0.47505699
 2.352  0.42932345
 2.353  0.30672085
 2.353  0.23039031
 2.353  0.09692155
 2.354  0.08800640
 2.354  -0.01228542
 2.355  0.05202654
 2.356  0.05505885
 2.356  0.15763452
 2.357  0.17540924
 2.357  0.18856309
 2.357  0.37241563
 2.358  0.41252473
 2.358  0.42676239
 2.359  0.56806662
 2.360  0.66904168
 2.360  1.01730009
 2.361  1.20124831
 2.361  1.45618050
 2.361  1.50295458
 2.362  1.60428802
 2.362  1.72042617
 2.363  1.82644092
 2.364  1.88907430
 2.364  1.96260751
 2.365  1.97797230
 2.365  1.91183622
 2.365  2.00892371
 2.366  1.82559312
 2.366  1.92307378
 2.367  1.75701603
 2.368  1.67692448
 2.368  1.61301121
 2.369  1.43296020
 2.369  1.38378988
 2.369  1.26094097
 2.370  1.04557288
 2.370  0.78144505
 2.371  0.51392897
 2.372  0.49825509
 2.372  0.43322016
 2.373  0.33532400
 2.373  0.23661476
 2.373  0.07209715
 2.374  0.02546321
 2.374  -0.01824518
 2.375  0.01305283
 2.376  0.00173895
 2.376  0.02021405
 2.377  0.10160361
 2.377  0.29974520
 2.377  0.30173174
 2.378  0.39812550
 2.378  0.49513341
 2.379  0.59597943
 2.380  0.72188978
 2.380  1.03706032
 2.381  1.25305338
 2.381  1.37413972
 2.381  1.57604589
 2.382  1.48566499
 2.382  1.63645985
 2.383  1.82216556
 2.384  1.80944404
 2.384  1.97520482
 2.385  2.02532259
 2.385  1.92865616
 2.385  1.89224194
 2.386  1.89360084
 2.386  1.89554830
 2.387  1.81697250
 2.388  1.68474679
 2.388  1.56653964
 2.389  1.48359955
 2.389  1.47790149
 2.389  1.31259380
 2.390  0.95029198
 2.390  0.76373036
 2.391  0.56298915
 2.392  0.39524771
 2.392  0.41292462
 2.393  0.33099279
 2.393  0.26501315
 2.393  0.02340346
 2.394  0.03106478
 2.394  0.04699909
 2.395  0.07319044
 2.396  0.06338808
 2.396  0.07718970
 2.397  0.14258861
 2.397  0.20976242
 2.397  0.31207665
 2.398  0.47211915
 2.398  0.54303739
 2.399  0.56063761
 2.400  0.78045324
 2.400  1.06559775
 2.401  1.19955138
 2.401  1.48591093
 2.401  1.58320214
 2.402  1.61955941
 2.402  1.74461442
 2.403  1.81353431
 2.404  1.94891118
 2.404  1.92362805
 2.405  1.93218878
 2.405  1.93016729
 2.405  1.88368769
 2.406  1.90596913
 2.406  2.00089780
 2.407  1.81199835
 2.408  1.59686185
 2.408  1.58442086
 2.409  1.60378610
 2.409  1.38880964
 2.409  1.26436959
 2.410  0.98808963
 2.410  0.68763635
 2.411  0.55064455
 2.412  0.59177826
 2.412  0.48252199
 2.413  0.34290979
 2.413  0.13825874
 2.413  0.08512880
 2.414  0.06015658
 2.414  0.06012853
 2.415  0.03847489
 2.416  0.08123219
 2.416  0.05392279
 2.417  0.06614435
 2.417  0.19767267
 2.417  0.32797954
 2.418  0.46783122
 2.418  0.46398418
 2.419  0.49822968
 2.420  0.68625190
 2.420  1.14364478
 2.421  1.28878371
 2.421  1.42952713
 2.421  1.44468421
 2.422  1.55925670
 2.422  1.64890091
 2.423  1.76202086
 2.424  1.85946436
 2.424  1.95262786
 2.425  2.00192790
 2.425  1.94461025
 2.425  2.02515572
 2.426  1.87298176
 2.426  2.02114875
 2.427  1.72619349
 2.428  1.63652366
 2.428  1.61338522
 2.429  1.49596669
 2.429  1.30179737
 2.429  1.22860994
 2.430  0.93244192
 2.430  0.66161740
 2.431  0.60008674
 2.432  0.45736906
 2.432  0.44456466
 2.433  0.31416396
 2.433  0.22914158
 2.433  0.13900869
 2.434  0.08947533
 2.434  -0.01348554
 2.435  0.05122266
 2.436  -0.02698766
 2.436  0.01370011
 2.437  0.12282253
 2.437  0.09609587
 2.438  0.29425363
 2.438  0.41955665
 2.438  0.50933785
 2.439  0.57834411
 2.439  0.71892157
 2.440  0.98161275
 2.441  1.21935397
 2.441  1.48849169
 2.442  1.43658635
 2.442  1.49732060
 2.442  1.65587796
 2.443  1.72952253
 2.443  1.87643509
 2.444  2.03309170
 2.445  1.93130350
 2.445  1.95678146
 2.446  1.93983642
 2.446  1.85353543
 2.446  1.90058400
 2.447  1.80913304
 2.447  1.72746236
 2.448  1.62334113
 2.449  1.56095347
 2.449  1.48689869
 2.450  1.27059429
 2.450  0.99078852
 2.450  0.75115568
 2.451  0.50033612
 2.451  0.52258949
 2.452  0.37976544
 2.453  0.33898229
 2.453  0.17546962
 2.454  0.10034584
 2.454  0.02386727
 2.454  0.09242720
 2.455  0.05105054
 2.455  0.09747561
 2.456  0.10016363
 2.457  0.11290861
 2.457  0.24813927
 2.458  0.30758004
 2.458  0.39449923
 2.458  0.50155562
 2.459  0.55260678
 2.459  0.79897171
 2.460  0.91971941
 2.461  1.18592964
 2.461  1.45592412
 2.462  1.50834455
 2.462  1.64840758
 2.462  1.67104510
 2.463  1.89587633
 2.463  1.89133678
 2.464  1.95921253
 2.465  1.99477306
 2.465  1.96145397
 2.466  1.95657644
 2.466  2.09388577
 2.466  1.95358333
 2.467  1.76583282
 2.467  1.73527565
 2.468  1.55716099
 2.469  1.59450401
 2.469  1.41927672
 2.470  1.16466515
 2.470  0.97906154
 2.470  0.81082448
 2.471  0.52929670
 2.471  0.40941305
 2.472  0.46476821
 2.473  0.28036798
 2.473  0.24834633
 2.474  0.03511009
 2.474  0.06799717
 2.474  0.08393986
 2.475  -0.00394354
 2.475  0.06243892
 2.476  0.02696832
 2.477  0.09564665
 2.477  0.24265716
 2.478  0.34270128
 2.478  0.37087113
 2.478  0.48078011
 2.479  0.56012341
 2.479  0.75394703
 2.480  1.00420831
 2.481  1.28081992
 2.481  1.35705369
 2.482  1.50382649
 2.482  1.64475911
 2.482  1.65086976
 2.483  1.74989122
 2.483  1.89350454
 2.484  1.94614081
 2.485  1.93859287
 2.485  1.92709212
 2.486  1.89985680
 2.486  1.84859079
 2.486  1.84813008
 2.487  1.74423701
 2.487  1.64407403
 2.488  1.66265967
 2.489  1.55398583
 2.489  1.43637320
 2.490  1.21348250
 2.490  0.94574505
 2.490  0.73562499
 2.491  0.59971138
 2.491  0.36225028
 2.492  0.42286827
 2.493  0.25172163
 2.493  0.16986630
 2.494  -0.00592231
 2.494  0.07367757
 2.494  0.06582957
 2.495  0.08514136
 2.495  0.02174889
 2.496  0.10213036
 2.497  0.02880523
 2.497  0.16581155
 2.498  0.31020516
 2.498  0.40698708
 2.498  0.47069204
 2.499  0.58078062
 2.499  0.76994938
 2.500  0.99543691
 2.501  1.25925558
 2.501  1.52792151
 2.502  1.48381371
 2.502  1.57553794
 2.502  1.68167382
 2.503  1.78478855
 2.503  1.96576940
 2.504  1.92662548
 2.505  1.93116469
 2.505  1.90281397
 2.506  2.01535653
 2.506  1.96443233
 2.506  1.89912134
 2.507  1.85273167
 2.507  1.66600582
 2.508  1.52548697
 2.509  1.53890462
 2.509  1.43038314
 2.510  1.18911260
 2.510  1.00820817
 2.510  0.72832384
 2.511  0.52031695
 2.511  0.45932225
 2.512  0.42064480
 2.513  0.38592754
 2.513  0.23728424
 2.514  0.15154494
 2.514  0.03165304
 2.514  0.02070613
 2.515  0.05853480
 2.515  0.14657905
 2.516  -0.00688252
 2.517  0.06035661
 2.517  0.20361023
 2.518  0.30627362
 2.518  0.39309044
 2.518  0.49144256
 2.519  0.58424600
 2.519  0.72526903
 2.520  1.00108600
 2.521  1.19325880
 2.521  1.44930015
 2.522  1.51507289
 2.522  1.55428155
 2.522  1.75577329
 2.523  1.86982441
 2.523  1.85173389
 2.524  1.88741020
 2.525  1.88841429
 2.525  1.91520386
 2.526  1.88376348
 2.526  1.99632044
 2.526  2.01354327
 2.527  1.80174857
 2.527  1.65305104
 2.528  1.66432494
 2.529  1.54645641
 2.529  1.39431316
 2.530  1.24672071
 2.530  1.00932168
 2.530  0.76525294
 2.531  0.58123162
 2.531  0.54643041
 2.532  0.40924349
 2.533  0.35063040
 2.533  0.25969459
 2.534  0.11572435
 2.534  -0.05512223
 2.534  -0.03751752
 2.535  0.12134333
 2.535  0.11503881
 2.536  0.06169026
 2.537  0.06512254
 2.537  0.10491562
 2.538  0.31307680
 2.538  0.34776154
 2.538  0.49143939
 2.539  0.50051410
 2.539  0.74614740
 2.540  1.01598568
 2.541  1.23901845
 2.541  1.40300201
 2.542  1.49900358
 2.542  1.56273905
 2.542  1.67382053
 2.543  1.78752321
 2.543  1.84284209
 2.544  1.96990076
 2.545  1.91113865
 2.545  1.89806422
 2.546  1.86746983
 2.546  1.86789786
 2.546  1.86940176
 2.547  1.81177565
 2.547  1.71039304
 2.548  1.56264295
 2.549  1.58010248
 2.549  1.42800029
 2.550  1.32763638
 2.550  0.99024904
 2.550  0.79468543
 2.551  0.59039941
 2.551  0.51024010
 2.552  0.42007150
 2.553  0.32658635
 2.553  0.18711921
 2.554  0.10195975
 2.554  0.20333863
 2.554  -0.06675371
 2.555  0.00549734
 2.555  0.07174941
 2.556  0.07538231
 2.557  0.08204050
 2.557  0.27920152
 2.558  0.36404487
 2.558  0.45195156
 2.558  0.53570621
 2.559  0.51879529
 2.559  0.75762552
 2.560  0.97612151
 2.561  1.26012849
 2.561  1.46439126
 2.562  1.50212756
 2.562  1.57111936
 2.563  1.70364946
 2.563  1.79597564
 2.563  1.83375588
 2.564  1.98019808
 2.564  1.94794726
 2.565  1.89153229
 2.566  1.96901306
 2.566  2.06600069
 2.567  1.94530343
 2.567  1.72275959
 2.567  1.63109631
 2.568  1.59111169
 2.568  1.49930563
 2.569  1.49779548
 2.570  1.28336646
 2.570  1.08912623
 2.571  0.74802793
 2.571  0.59511949
 2.571  0.45479122
 2.572  0.35514648
 2.572  0.27398435
 2.573  0.20497368
 2.574  -0.00657345
 2.574  0.04124370
 2.575  0.03242455
 2.575  0.02505629
 2.575  0.00891547
 2.576  0.02980454
 2.576  0.04016180
 2.577  0.17811597
 2.578  0.33008541
 2.578  0.38884675
 2.579  0.51058944
 2.579  0.61454873
 2.579  0.71272642
 2.580  0.97164086
 2.580  1.28463316
 2.581  1.31641048
 2.582  1.55118879
 2.582  1.52933290
 2.583  1.68609923
 2.583  1.81848788
 2.583  1.91768455
 2.584  1.92164592
 2.584  1.96960644
 2.585  1.85081573
 2.586  2.03107812
 2.586  1.86778175
 2.587  1.90922609
 2.587  1.74079126
 2.587  1.58472442
 2.588  1.61636617
 2.588  1.51115369
 2.589  1.37928344
 2.590  1.19094540
 2.590  0.97427980
 2.591  0.83369681
 2.591  0.55122870
 2.591  0.49739072
 2.592  0.37990795
 2.592  0.25492603
 2.593  0.20746181
 2.594  0.17435434
 2.594  -0.00133493
 2.595  0.01877212
 2.595  0.07560095
 2.595  0.10176430
 2.596  0.09795224
 2.596  0.01377725
 2.597  0.23783859
 2.598  0.32577857
 2.598  0.42444087
 2.599  0.46757313
 2.599  0.49669060
 2.599  0.77429071
 2.600  0.97788987
 2.600  1.23724790
 2.601  1.47431994
 2.602  1.54025609
 2.602  1.51306596
 2.603  1.68129008
 2.603  1.72785860
 2.603  1.86768053
 2.604  1.90811141
 2.604  1.97756756
 2.605  1.96073413
 2.606  2.02934824
 2.606  1.94861517
 2.607  1.93255377
 2.607  1.77710634
 2.607  1.72502783
 2.608  1.61676667
 2.608  1.54394162
 2.609  1.40495415
 2.610  1.32245858
 2.610  0.97757371
 2.611  0.71704350
 2.611  0.53413984
 2.611  0.45702170
 2.612  0.32912399
 2.612  0.36884434
 2.613  0.13645077
 2.614  0.07613167
 2.614  0.10555777
 2.615  0.13359567
 2.615  0.04282599
 2.615  0.04115006
 2.616  0.06243915
 2.616  0.08319659
 2.617  0.26524770
 2.618  0.37949762
 2.618  0.45599548
 2.619  0.45623556
 2.619  0.53949678
 2.619  0.69540983
 2.620  0.98623557
 2.620  1.22850914
 2.621  1.44960774
 2.622  1.55947939
 2.622  1.66351199
 2.623  1.64147934
 2.623  1.78707773
 2.623  1.87559405
 2.624  2.06566811
 2.624  1.99842323
 2.625  1.94176618
 2.626  2.00316580
 2.626  1.94495819
 2.627  1.86472507
 2.627  1.81486601
 2.627  1.63162197
 2.628  1.58509502
 2.628  1.45147791
 2.629  1.43982418
 2.630  1.17627712
 2.630  0.96633280
 2.631  0.84793711
 2.631  0.59471944
 2.631  0.38982453
 2.632  0.33749444
 2.632  0.31622343
 2.633  0.23427997
 2.634  0.03860667
 2.634  0.14578349
 2.635  0.11048113
 2.635  0.03642327
 2.635  0.11119155
 2.636  0.07375118
 2.636  0.08783079
 2.637  0.16267907
 2.638  0.36407188
 2.638  0.33205531
 2.639  0.38451884
 2.639  0.53532562
 2.639  0.75991345
 2.640  1.00221408
 2.640  1.29596765
 2.641  1.39667919
 2.642  1.50081282
 2.642  1.52442252
 2.643  1.64356984
 2.643  1.70995822
 2.643  1.94639272
 2.644  1.95106449
 2.644  1.95617924
 2.645  1.93471522
 2.646  1.96375822
 2.646  1.93850690
 2.647  1.80746215
 2.647  1.75576313
 2.647  1.63318324
 2.648  1.58214298
 2.648  1.53913662
 2.649  1.48191265
 2.650  1.23872964
 2.650  1.02531228
 2.651  0.76401417
 2.651  0.62555251
 2.651  0.41374215
 2.652  0.33801465
 2.652  0.28264533
 2.653  0.14881043
 2.654  0.18406848
 2.654  0.05975841
 2.655  0.07139962
 2.655  0.01906022
 2.655  0.04922291
 2.656  0.02478524
 2.656  0.15982225
 2.657  0.14656560
 2.658  0.30395380
 2.658  0.35178310
 2.659  0.49830133
 2.659  0.56474665
 2.659  0.72969397
 2.660  0.96154754
 2.660  1.24712813
 2.661  1.45596388
 2.662  1.59297456
 2.662  1.53931549
 2.663  1.71053280
 2.663  1.81515919
 2.663  1.90595121
 2.664  1.83792886
 2.664  1.97854911
 2.665  1.94875274
 2.666  1.88906072
 2.666  1.98499791
 2.667  1.78242895
 2.667  1.79367037
 2.667  1.59329565
 2.668  1.59064294
 2.668  1.54007456
 2.669  1.38181134
 2.670  1.27040649
 2.670  1.00913367
 2.671  0.71574204
 2.671  0.58882619
 2.671  0.43111270
 2.672  0.43027976
 2.672  0.31042103
 2.673  0.21943250
 2.674  0.08413266
 2.674  0.07608771
 2.675  0.04066472
 2.675  0.06546232
 2.675  0.07904485
 2.676  0.05950239
 2.676  0.18781489
 2.677  0.23501483
 2.678  0.19416696
 2.678  0.47315064
 2.679  0.46529252
 2.679  0.51318516
 2.679  0.69772570
 2.680  0.92669995
 2.680  1.23412697
 2.681  1.39558245
 2.682  1.51169594
 2.682  1.57214583
 2.683  1.60389923
 2.683  1.75232363
 2.683  1.91960862
 2.684  1.96666644
 2.684  1.97198884
 2.685  1.94769412
 2.686  1.95692398
 2.686  1.97253490
 2.687  1.80529502
 2.687  1.80113315
 2.688  1.70152161
 2.688  1.67377509
 2.688  1.47316201
 2.689  1.46673884
 2.689  1.29759837
 2.690  0.98673169
 2.691  0.70181565
 2.691  0.47211950
 2.692  0.46750995
 2.692  0.37830616
 2.692  0.36437609
 2.693  0.22786332
 2.693  0.03607059
 2.694  0.06011474
 2.695  0.01814094
 2.695  0.00052862
 2.696  -0.02107022
 2.696  0.04086910
 2.696  0.07617172
 2.697  0.18277012
 2.697  0.36021325
 2.698  0.31952128
 2.699  0.39325676
 2.699  0.50394586
 2.700  0.75794087
 2.700  0.99861291
 2.700  1.20350805
 2.701  1.39562356
 2.701  1.59354005
 2.702  1.57986476
 2.703  1.68829078
 2.703  1.67828818
 2.704  1.87553973
 2.704  1.93201984
 2.704  1.91324171
 2.705  1.95924326
 2.705  1.99606650
 2.706  1.93610864
 2.707  1.85608600
 2.707  1.75138317
 2.708  1.70732871
 2.708  1.52547136
 2.708  1.51746804
 2.709  1.45804409
 2.709  1.24274991
 2.710  0.91963996
 2.711  0.74736797
 2.711  0.54422263
 2.712  0.43683398
 2.712  0.48328796
 2.712  0.24240582
 2.713  0.14981588
 2.713  0.00302762
 2.714  0.08770779
 2.715  0.01805062
 2.715  0.04216705
 2.716  0.03444605
 2.716  0.10627184
 2.716  0.10319568
 2.717  0.14688065
 2.717  0.16578159
 2.718  0.40679401
 2.719  0.47464618
 2.719  0.54827542
 2.720  0.74917872
 2.720  1.01913945
 2.720  1.25583702
 2.721  1.43947405
 2.721  1.53751386
 2.722  1.62649173
 2.723  1.66720667
 2.723  1.80560188
 2.724  1.90842281
 2.724  1.86263321
 2.724  1.87836262
 2.725  1.94009913
 2.725  1.93965184
 2.726  1.93806845
 2.727  1.88136818
 2.727  1.76525875
 2.728  1.71022753
 2.728  1.62440585
 2.728  1.58350083
 2.729  1.44465442
 2.729  1.25730784
 2.730  0.98400631
 2.731  0.74804807
 2.731  0.58952453
 2.732  0.39792265
 2.732  0.34470806
 2.732  0.33836031
 2.733  0.24071214
 2.733  0.09649771
 2.734  0.03258994
 2.735  0.04829372
 2.735  0.06173123
 2.736  0.02432754
 2.736  0.02904995
 2.736  0.12706905
 2.737  0.21979778
 2.737  0.36436882
 2.738  0.46066884
 2.739  0.45316025
 2.739  0.54216984
 2.740  0.68693806
 2.740  1.02947544
 2.740  1.32462153
 2.741  1.45651948
 2.741  1.57861939
 2.742  1.55686241
 2.743  1.65568685
 2.743  1.70489422
 2.744  1.93320705
 2.744  1.92163149
 2.744  1.91112351
 2.745  1.92383510
 2.745  1.93252150
 2.746  1.90332565
 2.747  1.96569909
 2.747  1.79549286
 2.748  1.63550755
 2.748  1.56967965
 2.748  1.48052123
 2.749  1.41018298
 2.749  1.16748477
 2.750  1.03613085
 2.751  0.69836351
 2.751  0.56766627
 2.752  0.46011385
 2.752  0.50462561
 2.752  0.31395866
 2.753  0.15582290
 2.753  0.05410476
 2.754  0.00761220
 2.755  0.04355323
 2.755  -0.00446394
 2.756  0.01317545
 2.756  0.03786919
 2.756  0.21836098
 2.757  0.12617616
 2.757  0.34813906
 2.758  0.39513608
 2.759  0.44614680
 2.759  0.54288367
 2.760  0.76946057
 2.760  0.97155370
 2.760  1.20667392
 2.761  1.41868703
 2.761  1.51531558
 2.762  1.65131598
 2.763  1.71323780
 2.763  1.70912035
 2.764  1.92764473
 2.764  1.82804715
 2.764  1.95387151
 2.765  1.94156764
 2.765  1.85983039
 2.766  1.88773928
 2.767  1.92759256
 2.767  1.74764075
 2.768  1.62516694
 2.768  1.51344058
 2.768  1.44455718
 2.769  1.45034587
 2.769  1.26170931
 2.770  0.93356196
 2.771  0.68220820
 2.771  0.57102333
 2.772  0.45834438
 2.772  0.35348149
 2.772  0.30955456
 2.773  0.15856933
 2.773  0.06255794
 2.774  0.02122800
 2.775  -0.02015023
 2.775  0.05970780
 2.776  0.07968460
 2.776  -0.02471718
 2.776  0.12745260
 2.777  0.19015008
 2.777  0.27420087
 2.778  0.41266962
 2.779  0.41728245
 2.779  0.51441645
 2.780  0.76762146
 2.780  1.03273301
 2.780  1.17196149
 2.781  1.34435083
 2.781  1.59210298
 2.782  1.64984917
 2.783  1.60910048
 2.783  1.86016590
 2.784  1.81581388
 2.784  1.93245606
 2.784  2.01519081
 2.785  1.93911259
 2.785  1.99049769
 2.786  1.90419898
 2.787  1.94956862
 2.787  1.77400655
 2.788  1.70540855
 2.788  1.54483681
 2.788  1.42177546
 2.789  1.46920356
 2.789  1.33162081
 2.790  0.96662200
 2.791  0.77685897
 2.791  0.52205022
 2.792  0.47289223
 2.792  0.35052292
 2.792  0.28444040
 2.793  0.11437880
 2.793  0.12589789
 2.794  -0.03553202
 2.795  0.04273172
 2.795  0.01293147
 2.796  0.01404086
 2.796  0.06843489
 2.796  0.17859860
 2.797  0.27145718
 2.797  0.31557273
 2.798  0.46828521
 2.799  0.43189085
 2.799  0.49113103
 2.800  0.64708843
 2.800  0.93322652
 2.800  1.23965468
 2.801  1.38372132
 2.801  1.52115490
 2.802  1.55805758
 2.803  1.70441854
 2.803  1.79245700
 2.804  1.83390332
 2.804  1.97878270
 2.804  1.85224748
 2.805  1.92196059
 2.805  1.93306705
 2.806  1.91154681
 2.807  1.84380072
 2.807  1.80059051
 2.808  1.65166706
 2.808  1.56552046
 2.808  1.44065609
 2.809  1.39040662
 2.809  1.15597807
 2.810  1.03731373
 2.811  0.78307235
 2.811  0.53946736
 2.812  0.38832634
 2.812  0.37399959
 2.813  0.25330283
 2.813  0.18181364
 2.813  0.08516785
 2.814  -0.03933062
 2.814  0.07736317
 2.815  0.07095026
 2.816  0.00058927
 2.816  0.04455305
 2.817  0.03998325
 2.817  0.13842378
 2.817  0.20238941
 2.818  0.42135752
 2.818  0.36947290
 2.819  0.56004946
 2.820  0.65783288
 2.820  1.06627909
 2.821  1.23180435
 2.821  1.39798690
 2.821  1.56419453
 2.822  1.58525897
 2.822  1.64984975
 2.823  1.81739328
 2.824  1.84875684
 2.824  1.93655617
 2.825  2.00336042
 2.825  1.97600528
 2.825  1.87858220
 2.826  1.88830212
 2.826  1.92359842
 2.827  1.68599350
 2.828  1.60746801
 2.828  1.58866116
 2.829  1.54129085
 2.829  1.34167281
 2.829  1.21284178
 2.830  1.00244315
 2.830  0.73720551
 2.831  0.42822523
 2.832  0.46192013
 2.832  0.36956958
 2.833  0.34164895
 2.833  0.24688767
 2.833  0.12922499
 2.834  0.06538658
 2.834  0.00364912
 2.835  0.08637496
 2.836  0.02543963
 2.836  0.10637135
 2.837  0.04426419
 2.837  0.28494941
 2.837  0.31354671
 2.838  0.35328506
 2.838  0.44502655
 2.839  0.66500618
 2.840  0.64360217
 2.840  0.99968722
 2.841  1.29609477
 2.841  1.40182747
 2.841  1.52343501
 2.842  1.62410976
 2.842  1.65655020
 2.843  1.78011073
 2.844  1.78074076
 2.844  1.93320286
 2.845  1.92006490
 2.845  1.94982997
 2.845  1.91615675
 2.846  1.87340637
 2.846  1.86698048
 2.847  1.77732881
 2.848  1.67135538
 2.848  1.55489523
 2.849  1.41864438
 2.849  1.41681344
 2.849  1.27414356
 2.850  0.97084342
 2.850  0.78687243
 2.851  0.51941588
 2.852  0.34809526
 2.852  0.40136814
 2.853  0.31459043
 2.853  0.23484113
 2.853  0.03056701
 2.854  0.00563313
 2.854  0.03972872
 2.855  0.00371417
 2.856  -0.00116186
 2.856  -0.02535165
 2.857  0.12806629
 2.857  0.22469568
 2.857  0.28898539
 2.858  0.38326954
 2.858  0.41167987
 2.859  0.61845530
 2.860  0.77920983
 2.860  0.88830941
 2.861  1.25740843
 2.861  1.32809758
 2.861  1.53320718
 2.862  1.56810034
 2.862  1.64280832
 2.863  1.68930529
 2.864  1.86507178
 2.864  1.87961994
 2.865  1.95725635
 2.865  1.96530023
 2.865  1.87295317
 2.866  1.92535902
 2.866  1.87264853
 2.867  1.82348386
 2.868  1.60889439
 2.868  1.49245182
 2.869  1.57529808
 2.869  1.40268335
 2.869  1.09325540
 2.870  1.04684926
 2.870  0.79508413
 2.871  0.61561103
 2.872  0.36634628
 2.872  0.38621412
 2.873  0.38158259
 2.873  0.16673704
 2.873  0.03396996
 2.874  0.01757702
 2.874  -0.05797844
 2.875  0.08326774
 2.876  -0.02384390
 2.876  0.05262388
 2.877  0.10456277
 2.877  0.26110854
 2.877  0.26473616
 2.878  0.35835897
 2.878  0.48525117
 2.879  0.63469568
 2.880  0.72284564
 2.880  0.90198159
 2.881  1.21122296
 2.881  1.52685368
 2.881  1.54972901
 2.882  1.58673685
 2.882  1.63529740
 2.883  1.61103741
 2.884  1.87683486
 2.884  1.93179252
 2.885  1.90386078
 2.885  2.00549071
 2.885  1.95496438
 2.886  1.90250198
 2.886  1.81121720
 2.887  1.73010517
 2.888  1.59429061
 2.888  1.54806700
 2.889  1.42414951
 2.889  1.35751182
 2.889  1.20954132
 2.890  1.03007853
 2.890  0.74339785
 2.891  0.57138143
 2.892  0.41325345
 2.892  0.40435980
 2.893  0.28113899
 2.893  0.20157962
 2.893  0.03276676
 2.894  0.01935487
 2.894  0.03918456
 2.895  0.08631719
 2.896  0.04241045
 2.896  -0.07730870
 2.897  0.03824351
 2.897  0.11509496
 2.897  0.38162782
 2.898  0.32712523
 2.898  0.31836449
 2.899  0.53556244
 2.900  0.68572882
 2.900  1.04132209
 2.901  1.15382132
 2.901  1.38673568
 2.901  1.52728224
 2.902  1.48792379
 2.902  1.65085590
 2.903  1.71689969
 2.904  1.78310557
 2.904  1.93511618
 2.905  1.84182152
 2.905  1.93560879
 2.905  1.91211455
 2.906  1.88763756
 2.906  1.84187898
 2.907  1.72323685
 2.908  1.63102610
 2.908  1.65177872
 2.909  1.43966323
 2.909  1.45799751
 2.909  1.26015935
 2.910  0.92484577
 2.910  0.70322236
 2.911  0.58498210
 2.912  0.47111682
 2.912  0.27487134
 2.913  0.12583127
 2.913  0.18056912
 2.913  0.10617764
 2.914  -0.00804420
 2.914  0.00313618
 2.915  0.01076939
 2.916  0.09732758
 2.916  -0.03291757
 2.917  0.10916046
 2.917  0.18572920
 2.917  0.27877367
 2.918  0.33651324
 2.918  0.53553493
 2.919  0.58299741
 2.920  0.73993287
 2.920  0.93675828
 2.921  1.18750125
 2.921  1.36403727
 2.921  1.50222823
 2.922  1.53619746
 2.922  1.67424272
 2.923  1.66561903
 2.924  1.82206918
 2.924  1.92356754
 2.925  1.89172096
 2.925  1.90065608
 2.925  2.01125352
 2.926  2.00950714
 2.926  1.87333985
 2.927  1.67188061
 2.928  1.67871803
 2.928  1.44841261
 2.929  1.53258901
 2.929  1.34363634
 2.929  1.29314662
 2.930  0.93089626
 2.930  0.70744251
 2.931  0.55102313
 2.932  0.43236458
 2.932  0.45121157
 2.933  0.32850877
 2.933  0.16058951
 2.933  0.06632638
 2.934  -0.03198906
 2.934  -0.00102167
 2.935  0.12804083
 2.936  0.13333236
 2.936  -0.14192110
 2.937  0.07800512
 2.937  0.27885130
 2.938  0.32676554
 2.938  0.39391731
 2.938  0.37545035
 2.939  0.55435724
 2.939  0.69286887
 2.940  0.88273291
 2.941  1.24504440
 2.941  1.32375638
 2.942  1.53303270
 2.942  1.60551139
 2.942  1.64532511
 2.943  1.75974446
 2.943  1.89422303
 2.944  1.95982393
 2.945  1.89423509
 2.945  1.86015746
 2.946  1.86717768
 2.946  1.90404184
 2.946  1.76621471
 2.947  1.79487052
 2.947  1.63077105
 2.948  1.53626261
 2.949  1.56252247
 2.949  1.40409184
 2.950  1.31776970
 2.950  0.91180377
 2.950  0.75270479
 2.951  0.38743672
 2.951  0.30322283
 2.952  0.34223659
 2.953  0.34879749
 2.953  0.21843364
 2.954  0.04950498
 2.954  -0.01192395
 2.954  -0.03435580
 2.955  -0.04951313
 2.955  0.00614865
 2.956  -0.01898396
 2.957  0.01847084
 2.957  0.15972497
 2.958  0.26784172
 2.958  0.33519142
 2.958  0.42843790
 2.959  0.41820715
 2.959  0.66742001
 2.960  0.86784443
 2.961  1.23779793
 2.961  1.38553224
 2.962  1.44570898
 2.962  1.52619258
 2.962  1.63598136
 2.963  1.79705587
 2.963  1.79874173
 2.964  1.93043164
 2.965  1.95771425
 2.965  1.87993326
 2.966  1.96323556
 2.966  1.92157965
 2.966  1.79365470
 2.967  1.73713767
 2.967  1.62568792
 2.968  1.57281952
 2.969  1.44367857
 2.969  1.39042688
 2.970  1.17777699
 2.970  0.90788447
 2.970  0.70968615
 2.971  0.52177646
 2.971  0.47063932
 2.972  0.43962015
 2.973  0.31062740
 2.973  0.13226278
 2.974  0.03627779
 2.974  -0.00215565
 2.974  -0.08603240
 2.975  -0.08173329
 2.975  -0.10308799
 2.976  0.05388746
 2.977  -0.02588523
 2.977  0.14441675
 2.978  0.34007858
 2.978  0.38049763
 2.978  0.44711007
 2.979  0.56431003
 2.979  0.69814890
 2.980  0.90885903
 2.981  1.14901834
 2.981  1.39900882
 2.982  1.50575740
 2.982  1.57803064
 2.982  1.57689166
 2.983  1.67844677
 2.983  1.81193698
 2.984  1.89602838
 2.985  1.95512500
 2.985  1.76015965
 2.986  1.95304928
 2.986  1.99132714
 2.986  1.76853541
 2.987  1.73081968
 2.987  1.50458482
 2.988  1.59424579
 2.989  1.42543488
 2.989  1.42803944
 2.990  1.20628018
 2.990  0.95988850
 2.990  0.65511221
 2.991  0.55413440
 2.991  0.41901067
 2.992  0.36946444
 2.993  0.25565108
 2.993  0.11665506
 2.994  0.03408082
 2.994  0.01748729
 2.994  0.02168612
 2.995  0.02999290
 2.995  -0.04452533
 2.996  0.03515020
 2.997  -0.03489113
 2.997  0.16494024
 2.998  0.20020035
 2.998  0.30414708
 2.998  0.44529633
 2.999  0.54858801
 2.999  0.72328508
 3.000  0.86559478
 3.001  1.29344358
 3.001  1.38642322
 3.002  1.56779166
 3.002  1.52553345
 3.002  1.64821000
 3.003  1.79281114
 3.003  1.88352366
 3.004  1.83941658
 3.005  1.91916483
 3.005  1.96275027
 3.006  1.97010728
 3.006  1.90170475
 3.006  1.89200365
 3.007  1.79695616
 3.007  1.55862038
 3.008  1.58026360
 3.009  1.55347455
 3.009  1.39062874
 3.010  1.28764580
 3.010  0.96655531
 3.010  0.75273032
 3.011  0.45659969
 3.011  0.45047786
 3.012  0.40005078
 3.013  0.33722665
 3.013  0.20990842
 3.014  0.01116837
 3.014  0.01646604
 3.014  -0.04502740
 3.015  -0.00433801
 3.015  -0.07430389
 3.016  -0.03246660
 3.017  0.03621213
 3.017  0.21092425
 3.018  0.35588112
 3.018  0.28943330
 3.018  0.37703206
 3.019  0.52913038
 3.019  0.70655476
 3.020  0.82513819
 3.021  1.20577685
 3.021  1.41623415
 3.022  1.46814472
 3.022  1.58645233
 3.022  1.63738654
 3.023  1.74765832
 3.023  1.81564117
 3.024  1.88546797
 3.025  1.88683090
 3.025  1.90559537
 3.026  1.96812766
 3.026  1.89722763
 3.026  1.84391452
 3.027  1.77459198
 3.027  1.58185433
 3.028  1.57466303
 3.029  1.48994788
 3.029  1.39711092
 3.030  1.20890010
 3.030  1.03815521
 3.030  0.63940350
 3.031  0.38653649
 3.031  0.38283988
 3.032  0.34537474
 3.033  0.32738170
 3.033  0.06285914
 3.034  0.07181764
 3.034  0.09037828
 3.034  0.00228073
 3.035  -0.04456887
 3.035  -0.01861787
 3.036  -0.11259616
 3.037  0.06531688
 3.037  0.18766643
 3.038  0.33513932
 3.038  0.38433735
 3.038  0.44739276
 3.039  0.55984365
 3.039  0.70539450
 3.040  0.86101514
 3.041  1.13109320
 3.041  1.36878554
 3.042  1.48826932
 3.042  1.54397861
 3.042  1.56463856
 3.043  1.73021825
 3.043  1.81622912
 3.044  1.94857370
 3.045  1.83159210
 3.045  1.89182179
 3.046  1.83845922
 3.046  1.88175804
 3.046  1.90423673
 3.047  1.84041926
 3.047  1.59327007
 3.048  1.55306762
 3.049  1.44480909
 3.049  1.33818792
 3.050  1.17018231
 3.050  0.96949877
 3.050  0.73689718
 3.051  0.55319722
 3.051  0.38728378
 3.052  0.28798136
 3.053  0.14856264
 3.053  0.09154579
 3.054  0.11116656
 3.054  -0.10351931
 3.054  0.00636024
 3.055  0.02613839
 3.055  -0.03400408
 3.056  0.04255923
 3.057  0.09079291
 3.057  0.17618812
 3.058  0.31428963
 3.058  0.30469853
 3.058  0.47967436
 3.059  0.48309530
 3.059  0.67078438
 3.060  0.98476142
 3.061  1.21074873
 3.061  1.40809846
 3.062  1.48088025
 3.062  1.54836576
 3.063  1.53074050
 3.063  1.67055097
 3.063  1.72396512
 3.064  1.90116511
 3.064  1.90135104
 3.065  1.89309510
 3.066  1.81037454
 3.066  1.87779662
 3.067  1.86098275
 3.067  1.87066898
 3.067  1.59298519
 3.068  1.51423496
 3.068  1.51770670
 3.069  1.41104198
 3.070  1.16118692
 3.070  0.90243985
 3.071  0.74476914
 3.071  0.51891360
 3.071  0.33138849
 3.072  0.35795191
 3.072  0.20244658
 3.073  0.07455230
 3.074  0.04561624
 3.074  -0.03411558
 3.075  -0.01600207
 3.075  -0.06903808
 3.075  -0.07349265
 3.076  0.03924810
 3.076  0.04236935
 3.077  0.18559280
 3.078  0.35000406
 3.078  0.33548849
 3.079  0.28202340
 3.079  0.55694861
 3.079  0.66646786
 3.080  0.86865957
 3.080  1.14538198
 3.081  1.39283726
 3.082  1.48514788
 3.082  1.41990340
 3.083  1.63385960
 3.083  1.73072470
 3.083  1.77220997
 3.084  1.89398389
 3.084  1.88781630
 3.085  1.91789314
 3.086  1.83797082
 3.086  1.80113298
 3.087  1.80452245
 3.087  1.67995075
 3.087  1.61993660
 3.088  1.53200564
 3.088  1.42294519
 3.089  1.35669345
 3.090  1.22762902
 3.090  0.96034240
 3.091  0.67679204
 3.091  0.49763048
 3.091  0.36642615
 3.092  0.36514221
 3.092  0.23543250
 3.093  0.22065210
 3.094  0.07568847
 3.094  -0.01158240
 3.095  0.01463580
 3.095  0.06172612
 3.095  -0.10257501
 3.096  0.00026263
 3.096  0.07506042
 3.097  0.10969617
 3.098  0.26842776
 3.098  0.36633362
 3.099  0.44134962
 3.099  0.51459594
 3.099  0.68014406
 3.100  1.00507952
 3.100  1.25037986
 3.101  1.37509055
 3.102  1.47843342
 3.102  1.48423729
 3.103  1.52387727
 3.103  1.73201459
 3.103  1.85096546
 3.104  1.89470915
 3.104  1.88826448
 3.105  1.91730735
 3.106  2.01048870
 3.106  1.85025972
 3.107  1.78737276
 3.107  1.76799426
 3.107  1.59542783
 3.108  1.43557706
 3.108  1.36414900
 3.109  1.40237318
 3.110  1.20084936
 3.110  0.83984758
 3.111  0.63022490
 3.111  0.43587313
 3.111  0.42294157
 3.112  0.29870157
 3.112  0.19667928
 3.113  0.13893980
 3.114  0.07415207
 3.114  0.00277654
 3.115  -0.07610277
 3.115  -0.01992955
 3.115  -0.02481898
 3.116  -0.05964194
 3.116  0.06036091
 3.117  0.18287734
 3.118  0.24650920
 3.118  0.35215610
 3.119  0.38083520
 3.119  0.46938133
 3.119  0.65971937
 3.120  1.01491895
 3.120  1.21853573
 3.121  1.32659581
 3.122  1.42538601
 3.122  1.44140455
 3.123  1.60934732
 3.123  1.75343888
